;  Optical constants for SiO2, fused (amorphous) quartz
; 
;   taken from:
;
;   'Handbook of Optical Constants of Solids II', Ed. by Edward D. Palik,
;   Academic Press, Inc., 1991.
;   
;    Lambda (A)            n            k
;-----------------------------------------
       1.23980      0.999995   4.68000e-08
       1.26867      0.999994   5.13000e-08
       1.29823      0.999994   5.62000e-08
       1.32848      0.999994   6.16000e-08
       1.35941      0.999993   6.75000e-08
       1.39108      0.999993   7.40000e-08
       1.42349      0.999993   8.10000e-08
       1.45663      0.999992   8.88000e-08
       1.49057      0.999992   9.73000e-08
       1.52529      0.999992   1.07000e-07
       1.56081      0.999991   1.17000e-07
       1.59717      0.999991   1.28000e-07
       1.63437      0.999990   1.40000e-07
       1.67244      0.999990   1.53000e-07
       1.71139      0.999989   1.68000e-07
       1.75125      0.999989   1.84000e-07
       1.79206      0.999988   2.01000e-07
       1.83381      0.999988   2.20000e-07
       1.87652      0.999987   2.41000e-07
       1.92024      0.999987   2.64000e-07
       1.96494      0.999986   2.89000e-07
       2.01070      0.999985   3.16000e-07
       2.05755      0.999985   3.46000e-07
       2.10550      0.999984   3.79000e-07
       2.15453      0.999983   4.14000e-07
       2.20472      0.999982   4.53000e-07
       2.25607      0.999982   4.96000e-07
       2.30862      0.999981   5.42000e-07
       2.36238      0.999980   5.93000e-07
       2.41742      0.999979   6.48000e-07
       2.47371      0.999978   7.09000e-07
       2.53134      0.999977   7.75000e-07
       2.59031      0.999976   8.47000e-07
       2.65062      0.999974   9.26000e-07
       2.71238      0.999973   1.01000e-06
       2.77559      0.999972   1.11000e-06
       2.84019      0.999970   1.21000e-06
       2.90637      0.999969   1.32000e-06
       2.97407      0.999968   1.44000e-06
       3.04335      0.999966   1.58000e-06
       3.11421      0.999964   1.72000e-06
       3.18674      0.999963   1.88000e-06
       3.26100      0.999961   2.05000e-06
       3.33692      0.999959   2.24000e-06
       3.41467      0.999957   2.44000e-06
       3.49426      0.999955   2.67000e-06
       3.57559      0.999953   2.91000e-06
       3.65895      0.999951   3.17000e-06
       3.74415      0.999949   3.46000e-06
       3.83139      0.999946   3.77000e-06
       3.92056      0.999944   4.11000e-06
       4.01191      0.999941   4.48000e-06
       4.10530      0.999938   4.89000e-06
       4.20100      0.999936   5.32000e-06
       4.29889      0.999933   5.80000e-06
       4.39895      0.999930   6.32000e-06
       4.50149      0.999926   6.88000e-06
       4.60635      0.999923   7.49000e-06
       4.71353      0.999919   8.15000e-06
       4.82337      0.999916   8.86000e-06
       4.93571      0.999912   9.64000e-06
       5.05072      0.999908   1.05000e-05
       5.16842      0.999904   1.14000e-05
       5.28880      0.999900   1.24000e-05
       5.41185      0.999896   1.35000e-05
       5.53804      0.999891   1.46000e-05
       5.66688      0.999887   1.59000e-05
       5.79888      0.999882   1.72000e-05
       5.93404      0.999878   1.87000e-05
       6.07239      0.999873   2.03000e-05
       6.21360      0.999869   2.20000e-05
       6.35860      0.999865   2.38000e-05
       6.50643      0.999861   2.58000e-05
       6.65807      0.999863   2.80000e-05
       6.81321      0.999858   9.04000e-06
       6.97183      0.999843   9.87000e-06
       7.13431      0.999833   1.08000e-05
       7.30067      0.999823   1.18000e-05
       7.47047      0.999813   1.28000e-05
       7.64459      0.999802   1.40000e-05
       7.82258      0.999792   1.53000e-05
       8.00491      0.999781   1.66000e-05
       8.19107      0.999770   1.81000e-05
       8.38212      0.999758   1.98000e-05
       8.57756      0.999746   2.15000e-05
       8.77734      0.999734   2.35000e-05
       8.98145      0.999721   2.55000e-05
       9.19051      0.999707   2.78000e-05
       9.40454      0.999693   3.03000e-05
       9.62428      0.999678   3.30000e-05
       9.84828      0.999662   3.59000e-05
       10.0772      0.999646   3.91000e-05
       10.3119      0.999629   4.25000e-05
       10.5524      0.999611   4.62000e-05
       10.7978      0.999593   5.03000e-05
       11.0499      0.999573   5.47000e-05
       11.3069      0.999553   5.95000e-05
       11.5707      0.999532   6.48000e-05
       11.8403      0.999510   7.05000e-05
       12.1157      0.999487   7.66000e-05
       12.3980      0.999464   8.29000e-05
       12.6873      0.999439   9.00000e-05
       12.9822      0.999413   9.80000e-05
       13.2840      0.999386   0.000107000
       13.5943      0.999358   0.000116000
       13.9100      0.999329   0.000125000
       14.2342      0.999299   0.000136000
       14.5670      0.999268   0.000147000
       14.9050      0.999235   0.000160000
       15.2534      0.999202   0.000174000
       15.6087      0.999167   0.000189000
       15.9706      0.999132   0.000206000
       16.3433      0.999096   0.000223000
       16.7247      0.999059   0.000242000
       17.1149      0.999021   0.000263000
       17.5113      0.998980   0.000285000
       17.9214      0.998950   0.000308000
       18.3375      0.998910   0.000333000
       18.7649      0.998870   0.000362000
       19.2009      0.998830   0.000393000
       19.6482      0.998790   0.000426000
       20.1070      0.998760   0.000461000
       20.5742      0.998740   0.000499000
       21.0564      0.998720   0.000540000
       21.5467      0.998710   0.000585000
       22.0487      0.998740   0.000633000
       22.5623      0.998900   0.000686000
       23.0875      0.998870   0.000204000
       23.6242      0.998620   0.000221000
       24.1724      0.998480   0.000239000
       24.7366      0.998350   0.000258000
       25.3124      0.998240   0.000279000
       25.9047      0.998120   0.000302000
       26.5084      0.998010   0.000326000
       27.1232      0.997890   0.000352000
       27.7546      0.997780   0.000380000
       28.4032      0.997650   0.000411000
       29.0624      0.997530   0.000444000
       29.7385      0.997400   0.000480000
       30.4320      0.997270   0.000518000
       31.1429      0.997130   0.000560000
       31.8715      0.996980   0.000605000
       32.6092      0.996830   0.000653000
       33.3728      0.996670   0.000706000
       34.1449      0.996510   0.000764000
       34.9436      0.996340   0.000826000
       35.7600      0.996160   0.000893000
       36.5939      0.995980   0.000965000
       37.4449      0.995790    0.00104000
       38.3127      0.995590    0.00113000
       39.2094      0.995390    0.00122000
       40.1230      0.995180    0.00132000
       41.0530      0.994960    0.00143000
       42.0129      0.994730    0.00154000
       42.9889      0.994500    0.00166000
       43.9957      0.994260    0.00179000
       45.0182      0.994010    0.00192000
       46.0721      0.993750    0.00207000
       47.1407      0.993480    0.00222000
       48.2412      0.993200    0.00239000
       49.3551      0.992910    0.00257000
       50.5010      0.992600    0.00277000
       51.6799      0.992290    0.00298000
       52.8925      0.991970    0.00321000
       54.1161      0.991650    0.00346000
       55.3729      0.991310    0.00372000
       56.6636      0.990970    0.00401000
       57.9888      0.990630    0.00432000
       59.3490      0.990280    0.00466000
       60.7150      0.989900    0.00502000
       62.1454      0.989600    0.00541000
       63.5795      0.989200    0.00583000
       65.0472      0.988900    0.00628000
       66.5843      0.988600    0.00678000
       68.1209      0.988400    0.00730000
       69.7300      0.988200    0.00776000
       71.3349      0.988100    0.00821000
       73.0153      0.987900    0.00861000
       74.6867      0.987800    0.00892000
       76.4365      0.987500    0.00918000
       78.2208      0.987200    0.00948000
       80.0387      0.986800    0.00979000
       81.8890      0.986300     0.0102000
       81.9974      0.987100    0.00730000
       83.8269      0.985900     0.0108000
       83.9973      0.986500    0.00760000
       85.7993      0.985500     0.0115000
       85.9778      0.986000    0.00810000
       87.7424      0.985300     0.0123000
       87.9915      0.985500    0.00890000
       89.8406      0.985300     0.0129000
       89.9710      0.985300    0.00990000
       91.9051      0.985300     0.0134000
       91.9733      0.985400     0.0107000
       93.9955      0.985800     0.0114000
       94.0668      0.985400     0.0138000
       95.9598      0.986800     0.0111000
       96.2578      0.985400     0.0141000
       98.0079      0.987200     0.0111000
       98.4750      0.985400     0.0143000
       99.9839      0.987400    0.00970000
       100.797      0.985500     0.0144000
       101.957      0.986500    0.00850000
       103.145      0.985300     0.0141000
       104.010      0.985100    0.00830000
       105.515      0.984900     0.0139000
       105.966      0.984100    0.00960000
       107.997      0.984300     0.0137000
       107.997      0.984800    0.00990000
       110.009      0.984400    0.00900000
       110.499      0.983400     0.0138000
       111.996      0.982200    0.00930000
       113.017      0.982700     0.0139000
       113.952      0.982800     0.0159000
       115.653      0.981900     0.0142000
       115.978      0.986700     0.0106000
       117.964      0.985800    0.00750000
       118.415      0.981300     0.0145000
       120.019      0.983900    0.00650000
       121.193      0.980900     0.0148000
       122.028      0.982300    0.00680000
       123.980      0.982100     0.0152000
       123.992      0.981300    0.00700000
       125.996      0.980300    0.00730000
       126.899      0.979200     0.0109000
       127.999      0.979400    0.00760000
       129.822      0.976200     0.0116000
       129.999      0.978900    0.00760000
       131.992      0.977800    0.00830000
       132.883      0.974000     0.0124000
       133.989      0.977000    0.00870000
       135.943      0.972100     0.0132000
       135.988      0.976100    0.00930000
       138.001      0.974700     0.0103000
       139.147      0.970200     0.0140000
       142.342      0.968300     0.0149000
       145.687      0.966500     0.0159000
       149.014      0.964600     0.0169000
       149.988      0.963400     0.0199000
       152.497      0.962700     0.0180000
       156.146      0.960800     0.0192000
       159.768      0.958800     0.0204000
       159.995      0.960800     0.0226000
       163.347      0.956800     0.0218000
       167.314      0.954700     0.0232000
       169.999      0.956200     0.0244000
       171.243      0.952500     0.0246000
       175.113      0.950300     0.0262000
       179.162      0.948100     0.0279000
       179.994      0.950900     0.0281000
       183.402      0.945700     0.0297000
       187.564      0.943400     0.0316000
       189.979      0.945800     0.0335000
       191.920      0.940900     0.0337000
       196.482      0.938400     0.0359000
       200.000      0.941600     0.0374000
       200.940      0.935900     0.0382000
       205.605      0.933300     0.0407000
       209.993      0.938600     0.0437000
       210.492      0.930700     0.0433000
       215.617      0.927900     0.0461000
       219.979      0.932800     0.0462000
       220.605      0.925200     0.0491000
       225.418      0.922400     0.0523000
       229.976      0.927100     0.0520000
       230.875      0.919600     0.0556000
       236.152      0.916800     0.0592000
       239.992      0.922200     0.0578000
       241.676      0.914000     0.0631000
       250.010      0.916400     0.0650000
       259.971      0.910500     0.0726000
       269.991      0.920700     0.0680000
       279.991      0.917500     0.0750000
       290.012      0.913700     0.0820000
       299.976      0.913000     0.0900000
       309.950      0.907000     0.0920000
       319.948      0.901000     0.0940000
       329.997      0.895000     0.0980000
       339.951      0.888000      0.107000
       350.028      0.882000      0.113000
       359.988      0.877000      0.120000
       369.979      0.870000      0.128000
       379.957      0.866000      0.137000
       389.997      0.858000      0.144000
       399.935      0.851000      0.156000
       409.987      0.845000      0.169000
       419.986      0.839000      0.180000
       430.038      0.833000      0.190000
       439.957      0.827000      0.202000
       450.018      0.822000      0.218000
       460.037      0.817000      0.233000
       469.977      0.813000      0.250000
       479.985      0.808000      0.270000
       490.040      0.804000      0.282000
       495.920      0.733000      0.325000
       499.919      0.803000      0.300000
       509.996      0.804000      0.322000
       516.583      0.753000      0.375000
       520.050      0.806000      0.343000
       530.056      0.811000      0.366000
       539.043      0.774000      0.434000
       539.983      0.817000      0.385000
       550.044      0.822000      0.408000
       559.982      0.829000      0.430000
       563.545      0.797000      0.480000
       570.023      0.833000      0.450000
       579.888      0.843000      0.470000
       590.100      0.851000      0.482000
       590.381      0.827000      0.530000
       600.097      0.862000      0.497000
       619.900      0.859000      0.585000
       635.795      0.879000      0.613000
       652.526      0.902000      0.645000
       670.162      0.927000      0.677000
       688.778      0.957000      0.712000
       698.479      0.975000      0.731000
       708.457      0.999000      0.750000
       718.725       1.03000      0.763000
       729.294       1.07200      0.768000
       740.179       1.12400      0.765000
       751.394       1.13700      0.755000
       762.954       1.15600      0.737000
       774.875       1.17200      0.717000
       787.175       1.17800      0.703000
       799.871       1.17200      0.696000
       812.984       1.16700      0.699000
       826.533       1.16800      0.711000
       840.542       1.17500      0.739000
       855.034       1.19500      0.771000
       870.035       1.22500      0.799000
       885.571       1.26500      0.808000
       901.673       1.32000      0.795000
       918.370       1.36300      0.775000
       935.698       1.37100      0.755000
       953.692       1.36800      0.747000
       972.392       1.37200      0.766000
       991.840       1.38300      0.793000
       1012.08       1.41000      0.824000
       1033.17       1.47500      0.861000
       1050.68       1.55400      0.874000
       1068.79       1.63500      0.859000
       1087.54       1.71600      0.810000
       1106.96       1.76600      0.718000
       1127.09       1.73900      0.569000
       1137.43       1.68700      0.565000
       1147.96       1.58700      0.618000
       1158.69       1.51300      0.725000
       1169.62       1.49200      0.914000
       1180.76       1.56700       1.11000
       1186.41       1.64500       1.13600
       1192.12       1.77200       1.13000
       1197.87       1.91900       1.04500
       1203.69       2.04800      0.925000
       1209.56       2.15200      0.810000
       1215.49       2.24000      0.715000
       1227.52       2.33200      0.460000
       1239.80       2.33000      0.323000
       1252.32       2.29200      0.236000
       1265.10       2.24300      0.168000
       1278.14       2.19000      0.119000
       1291.46       2.14000     0.0770000
       1305.05       2.09200     0.0561000
       1318.94       2.04700     0.0430000
       1333.12       2.00600     0.0339000
       1347.61       1.96900     0.0271000
       1362.42       1.93500     0.0228000
       1377.56       1.90400     0.0189000
       1393.03       1.87600     0.0156000
       1408.86       1.85000     0.0132000
       1425.06       1.82500     0.0109000
       1441.63       1.80300    0.00838000
       1458.59       1.78300    0.00557000
       1475.95       1.76400    0.00317000
       1493.73       1.74700    0.00140000
       1511.95       1.73000   0.000463000
       1530.62       1.71600   0.000122000
       1549.75       1.70200   3.20000e-05
       1589.49       1.67600   4.70000e-06
       1631.32       1.65300       0.00000
       1675.41       1.63300       0.00000
       1721.94       1.61600       0.00000
       1771.14       1.60000       0.00000
       1836.74       1.58200       0.00000
       1907.38       1.56700       0.00000
       1983.68       1.55400       0.00000
       2066.33       1.54300       0.00000
       2138.47       1.53429       0.00000
       2144.28       1.53371       0.00000
       2267.37       1.52276       0.00000
       2301.98       1.52009       0.00000
       2378.24       1.51474       0.00000
       2399.27       1.51338       0.00000
       2482.63       1.50841       0.00000
       2651.92       1.50004       0.00000
       2698.74       1.49805       0.00000
       2752.66       1.49592       0.00000
       2803.33       1.49404       0.00000
       2893.48       1.49099       0.00000
       2967.16       1.48873       0.00000
       3021.40       1.48719       0.00000
       3302.43       1.48053       0.00000
       3341.33       1.47976       0.00000
       3403.52       1.47858       0.00000
       3466.03       1.47746       0.00000
       3610.37       1.47512       0.00000
       3650.01       1.47453       0.00000
       4046.34       1.46961       0.00000
       4358.13       1.46669       0.00000
       4677.96       1.46429       0.00000
       4861.20       1.46313       0.00000
       5085.52       1.46187       0.00000
       5460.47       1.46008       0.00000
       5769.46       1.45885       0.00000
       5790.48       1.45877       0.00000
       5875.27       1.45847       0.00000
       5892.31       1.45841       0.00000
       6438.18       1.45671       0.00000
       6562.57       1.45637       0.00000
       6677.80       1.45608       0.00000
       7064.79       1.45515       0.00000
       8520.96       1.45248       0.00000
       8943.23       1.45185       0.00000
       10139.0       1.45025       0.00000
       10828.9       1.44941       0.00000
       11286.3       1.44888       0.00000
       13621.5       1.44621       0.00000
       13950.1       1.44584       0.00000
       14694.4       1.44497       0.00000
       15294.7       1.44427       0.00000
       16605.3       1.44267       0.00000
       16808.6       1.44241       0.00000
       16931.4       1.44226       0.00000
       17090.6       1.44205       0.00000
       18130.0       1.44069       0.00000
       19700.0       1.43851       0.00000
       20580.0       1.43722       0.00000
       21525.1       1.43576       0.00000
       23253.4       1.43292       0.00000
       24372.9       1.43095       0.00000
       32437.7       1.41314       0.00000
       32666.7       1.41253       0.00000
       33024.3       1.41155       0.00000
       34220.3       1.40819       0.00000
       35068.2       1.40568       0.00000
       35562.1       1.40418       0.00000
       37065.4       1.39936       0.00000
       38455.3       1.39500       0.00000
       41659.9       1.38300       0.00000
       45447.2       1.36500       0.00000
       49991.9       1.34200       0.00000
       55546.6       1.30600       0.00000
       58814.0       1.27800       0.00000
       62489.9       1.23900       0.00000
       64505.7       1.21200       0.00000
       66655.9       1.17500       0.00000
       67564.0       1.15800       0.00000
       68497.2       1.13500       0.00000
       69456.6       1.10700       0.00000
       70403.2       1.08400       0.00000
       71417.0       1.05300       0.00000
       72460.5       1.01400       0.00000
       73535.0      0.970200       0.00000
       74062.1      0.948800       0.00000
       74641.8      0.917500       0.00000
       75185.0      0.889700       0.00000
       75736.1      0.860000       0.00000
       76342.4      0.821300       0.00000
       76910.7      0.771900     0.0372000
       77536.0      0.703700     0.0474000
       78122.2      0.623200     0.0768000
       78717.5      0.545600      0.132000
       79372.6      0.467700      0.216000
       79987.1      0.411300      0.323000
       80663.6      0.393100      0.446000
       81298.4      0.402000      0.553000
       81943.2      0.432900      0.635000
       82653.3      0.453000      0.704000
       83319.9      0.460000      0.771000
       84054.2      0.473000      0.840000
       84743.7      0.474600      0.903000
       85444.5      0.465600      0.978000
       86217.0      0.456300       1.07000
       86942.5      0.430900       1.17000
       87742.4      0.391500       1.32000
       88493.9      0.356300       1.53000
       89258.5      0.370500       1.85000
       90101.7      0.584600       2.27000
       90894.4       1.04300       2.55000
       91769.1       1.61600       2.63000
       93008.2       2.25000       2.26000
       95222.7       2.76000       1.65000
       97545.2       2.83900      0.962000
       99983.9       2.69400      0.509000
       102548.       2.44800      0.231000
       105246.       2.22400      0.102000
       108091.       2.03800     0.0460000
       111093.       1.86900     0.0506000
       113639.       1.78400     0.0775000
       116304.       1.69000      0.116000
       117628.       1.65200      0.152000
       119097.       1.61900      0.204000
       120486.       1.61500      0.267000
       121908.       1.65800      0.323000
       123486.       1.70100      0.341000
       125000.       1.753        0.343
       126600.       1.789        0.314
       128200.       1.811        0.275
       129900.       1.810        0.227
       131600.       1.779        0.192
       133300.       1.756        0.177
       137900.       1.698        0.157
       142900.       1.643        0.157
       148100.       1.598        0.168
       153800.       1.555        0.182
       160000.       1.502        0.202
       166700.       1.450        0.235
       172400.       1.401        0.264
       178600.       1.337        0.298
       185200.       1.235        0.341
       189700.       1.161        0.377
       192300.       1.050        0.415
       196100.       0.8857       0.524
       200000.       0.6616       0.822
       204100.       0.5777       1.28
       208300.       0.7517       1.86
       210500.       1.002        2.22
       212800.       1.484        2.39
       217400.       2.308        2.29
       227300.       2.936        1.29
       238100.       2.912        0.738
       250000.       2.739        0.397
       266700.       2.537        0.199
