;  Optical constants for Al.
; 
;   taken from:
;
;   'Handbook of Optical Constants of Solids', Ed. by Edward D. Palik,
;   Academic Press, Inc., 1985.
;   
;    Lambda (A)            n            k
;-----------------------------------------
       165.307 1.01 2.40E-2
       167.541 1.01 2.42E-2
       169.836 1.02 1.91E-2
       172.194 1.02 3.46E-3
       174.620 1.01 3.46E-3
       177.114 1.01 3.52E-3
       190.738 0.995 4.17E-3
       206.633 0.987 4.41E-3
       225.418 0.979 5.08E-3
       247.960 0.969 5.87E-3
       275.511 0.957 6.82E-3
       309.950 0.940 8.16E-3
       326.263 0.931 8.71E-3
       344.389 0.921 9.32E-3
       364.647 0.909 1.02E-2
       375.697 0.902 1.07E-2
       387.438 0.894 1.11E-2
       399.935 0.885 1.16E-2
       413.267 0.876 1.25E-2
       427.517 0.865 1.35E-2
       442.786 0.854 1.45E-2
       459.185 0.841 1.55E-2
       476.846 0.826 1.65E-2
       495.920 0.809 1.77E-2
       516.583 0.789 1.90E-2
       539.043 0.766 2.05E-2
       563.545 0.740 2.22E-2
       590.381 0.707 2.42E-2
       619.900 0.668 2.68E-2
       635.795 0.646 2.84E-2
       652.526 0.620 3.02E-2
       670.162 0.591 3.24E-2
       688.778 0.558 3.48E-2
       708.457 0.520 3.81E-2
       729.294 0.474 4.23E-2
       751.394 0.419 4.87E-2
       774.875 0.351 5.95E-2
       799.871 0.258 7.77E-2
       826.533 0.125 0.153
       855.034 0.0616 0.301
       885.571 0.0481 0.416
       918.370 0.0409 0.517
       953.692 0.0376 0.609
       991.840 0.0344 0.700
       1033.17 0.0328 0.791
       1078.09 0.0331 0.883
       1127.09 0.0356 0.978
       1180.76 0.0396 1.08
       1239.80 0.0442 1.18
       1305.05 0.0495 1.29
       1377.56 0.0557 1.40
       1416.91 0.0592 1.46
       1458.59 0.0630 1.53
       1502.79 0.0671 1.59
       1549.75 0.0716 1.66
       1599.74 0.0765 1.74
       1710.07 0.0880 1.90
       1771.14 0.0946 1.98
       1836.74 0.102 2.07
       1983.68 0.119 2.28
       2066.33 0.130 2.39
       2156.17 0.141 2.51
       2254.18 0.155 2.64
       2361.52 0.172 2.79
       2479.60 0.190 2.94
       2610.11 0.209 3.11
       2755.11 0.233 3.30
       2917.18 0.261 3.51
       2999.76 0.276 3.61
       3099.50 0.294 3.74
       3178.97 0.310 3.84
       3262.63 0.326 3.95
       3350.81 0.344 4.06
       3443.89 0.364 4.17
       3500.28 0.375 4.24
       3542.29 0.385 4.30
       3646.47 0.407 4.43
       3756.97 0.432 4.56
       3874.38 0.460 4.71
       3999.35 0.490 4.86
       4132.67 0.523 5.02
       4275.17 0.558 5.20
       4427.86 0.598 5.38
       4500.18 0.618 5.47
       4591.85 0.644 5.58
       4768.46 0.695 5.80
       4959.20 0.755 6.03
       4999.19 0.769 6.08
       5060.41 0.789 6.15
       5165.83 0.826 6.28
       5275.75 0.867 6.42
       5390.44 0.912 6.55
       5500.44 0.958 6.69
       5510.22 0.963 6.70
       5635.45 1.02 6.85
       5766.51 1.08 7.00
       5903.81 1.15 7.15
       6000.97 1.20 7.26
       6047.81 1.22 7.31
       6199.00 1.30 7.48
       6357.95 1.39 7.65
       6497.90 1.47 7.79
       6525.26 1.49 7.82
       6701.62 1.60 8.01
       6887.78 1.74 8.21
       7000.56 1.83 8.31
       7084.57 1.91 8.39
       7292.94 2.14 8.57
       7500.30 2.40 8.62
       7513.94 2.41 8.62
       7748.75 2.63 8.60
       7998.71 2.80 8.45
       8248.84 2.75 8.31
       8265.33 2.74 8.31
       8497.60 2.61 8.22
       8550.34 2.58 8.21
       8749.47 2.38 8.18
       8855.71 2.24 8.21
       8997.10 2.06 8.30
       9183.70 1.86 8.44
       9252.24 1.77 8.49
       9500.38 1.49 8.88
       9536.92 1.47 8.95
       9918.40 1.37 9.49
       9998.39 1.35 9.58
       10331.7 1.26 10.0
       10780.9 1.21 10.6
       11270.9 1.20 11.2
       11807.6 1.21 11.8
       12001.9 1.21 12.0
       12398.0 1.21 12.5
