;  Optical constants for cubic AlSb
; 
;   taken from:
;
;   'Handbook of Optical Constants of Solids II', Ed. by Edward D. Palik,
;   Academic Press, Inc., 1991.
;   
;    Lambda (A)            n            k
;-----------------------------------------
       2137.59       1.00000       2.40000
       2175.09       1.01000       2.42000
       2213.93       1.04000       2.46000
       2254.18       1.09000       2.52000
       2295.93       1.17000       2.58000
       2339.25       1.26000       2.59000
       2384.23       1.31000       2.58000
       2430.98       1.31000       2.59000
       2479.60       1.30000       2.64000
       2530.20       1.29000       2.72000
       2582.92       1.30000       2.84000
       2637.87       1.33000       2.99000
       2695.22       1.38000       3.16000
       2755.11       1.45000       3.39000
       2817.73       1.59000       3.70000
       2883.26       1.96000       4.07000
       2951.90       2.60000       4.22000
       3023.90       3.15000       4.00000
       3099.50       3.50000       3.71000
       3178.97       3.71000       3.40000
       3262.63       3.81000       3.16000
       3350.81       3.93000       2.97000
       3443.89       3.96000       2.81000
       3542.29       3.95000       2.69000
       3646.47       3.97000       2.64000
       3756.97       4.14000       2.69000
       3874.38       4.51000       2.47000
       3999.35       4.57000       2.12000
       4132.67       4.52000       1.97000
       4275.17       4.66000       2.06000
       4427.86       5.27000       1.58000
       4591.85       5.08000      0.920000
       4768.46       4.81000      0.630000
       4959.20       4.61000      0.460000
       5165.83       4.44000      0.330000
       5390.44       4.31000      0.240000
       5635.45       4.20000     0.0100000
       5903.81       4.01000    0.00600000
       250010.       2.75000    0.00540000
       259971.       2.64000    0.00870000
       269991.       2.46000     0.0151000
       272005.       2.42000     0.0172000
       273989.       2.37000     0.0197000
       276002.       2.31000     0.0227000
       277982.       2.24000     0.0265000
       279991.       2.16000     0.0313000
       281965.       2.07000     0.0375000
       285932.       1.96000     0.0457000
       287991.       1.66000     0.0742000
       290012.       1.44000      0.102000
       291992.       1.13000      0.157000
       294000.      0.633000      0.344000
       295966.      0.276000      0.992000
       297957.      0.225000       1.56000
       299976.      0.224000       2.09000
       301948.      0.247000       2.64000
       303947.      0.294000       3.25000
       305972.      0.382000       4.01000
       307948.      0.557000       5.02000
       308946.      0.718000       5.70000
       309950.      0.987000       6.58000
       310961.       1.50000       7.80000
       311978.       2.67000       9.56000
       312923.       6.13000       11.7000
       313953.       12.1000       8.43000
       314910.       11.3000       3.37000
       315953.       9.57000       1.67000
       316922.       8.39000       1.00000
       317979.       7.60000      0.676000
       318961.       7.02000      0.491000
       319948.       6.59000      0.376000
       329997.       4.86000     0.0824000
       339951.       4.34000     0.0377000
       350028.       4.08000     0.0223000
       359988.       3.93000     0.0150000
       369979.       3.82000     0.0110000
       380074.       3.75000    0.00850000
       399936.       3.65000    0.00570000
       450018.       3.53000    0.00290000
       499919.       3.48000    0.00190000
       600097.       3.42000   0.000110000
       700056.       3.40000   0.000810000
       799871.       3.38000   0.000640000
       899710.       3.38000   0.000520000
       999839.       3.37000   0.000450000
