;  Optical constants for Au.
; 
;   taken from:
; 
;   Canfield et al., in 
;
;   'Handbook of Optical Constants of Solids', Ed. by Edward D. Palik,
;   Academic Press, Inc., 1985.
;   
;    Lambda (A)            n            k
;-----------------------------------------
470.	.855	.548
480.	.846	.565
490.	.846	.600
500.	.850	.645
510.	.860	.695
520.	.872	.740
530.	.890	.795
540.	.915	.825
550.	.950	.840
560.	.985	.848
570.	1.022	.850
580.	1.055	.842
590.	1.085	.830
600.	1.113	.813
610.	1.134	.795
620.	1.146	.770
630.	1.153	.750
640.	1.157	.730
650.	1.155	.710
660.	1.140	.700
670.	1.125	.694	
680.	1.107	.687
690.	1.088	.680
700.	1.075	.678
710.	1.060	.680
720.	1.050	.685
730.	1.042	.690
740.	1.038	.697
750.	1.033	.704
760.	1.030	.713
770.	1.029	.720
780.	1.028	.730
790.	1.028	.739
800.	1.029	.745
810.	1.030	.752
820.	1.033	.759
830.	1.037	.765
840.	1.041	.770
850.	1.048	.775
860.	1.053	.780
870.	1.061	.784
880.	1.070	.789
890.	1.080	.793
900.	1.090	.798
910.	1.100	.801
920.	1.110	.806
930.	1.121	.809
940.	1.133	.812
950.	1.146	.815
960.	1.159	.819
970.	1.170	.823
980.	1.180	.826
990.	1.190	.831
1000.	1.200	.836
1010.	1.207	.842
1020.	1.210	.848
1030.	1.213	.853
1040.	1.215	.860
1050.	1.217	.865
1060.	1.217	.870
1070.	1.218	.878
1080.	1.218	.885
1090.	1.220	.893
1100.	1.222	.900
1110.	1.223	.907
1120.	1.225	.914
1130.	1.228	.922
1140.	1.232	.927
1150.	1.237	.932
1160.	1.242	.935
1170.	1.247	.942
1180.	1.250	.950
1190.	1.255	.955
1200.	1.260	.962
1210.	1.265	.967
1220.	1.270	.975
1230.	1.275	.982
1240.	1.280	.987
1250.	1.285	.994
1260.	1.290	1.000
1270.	1.295	1.005
1280.	1.300	1.012
1290.	1.304	1.017
1300.	1.308	1.020
