;  Optical constants for polycrystalline Au
; 
;   taken from:
;
;   'Handbook of Optical Constants of Solids', Ed. by Edward D. Palik,
;   Academic Press, Inc., 1985.
;   
;    Lambda (A)            n            k
;-----------------------------------------
       1.24992 0.9999719   2.39000e-06
       1.34996 0.9999665   3.13000e-06
       1.44989 0.9999608   4.02000e-06
       1.49988 0.9999578   4.52000e-06
       1.74989 0.9999415   7.78000e-06
       2.00000 0.9999227   1.25000e-05
       2.50010 0.999879   2.75000e-05
       2.99976 0.999831   5.25000e-05
       3.50028 0.999794   9.07000e-05
       3.99935 0.999769   0.000120000
       4.99919 0.999706   0.000236000
       6.00097 0.999637   9.88000e-05
       7.00056 0.999395   0.000168000
       7.99871 0.999156   0.000267000
       8.33759 0.999085   0.000310000
       9.88676 0.99885   0.000440000
       10.4360 0.99871   0.000533000
       12.2510 0.99820   0.000940000
       13.3398 0.99788    0.00123000
       14.5602 0.99759    0.00157000
       15.9686 0.99734    0.00186000
       17.5883 0.99708    0.00234000
       19.4478 0.99665    0.00268000
       21.6408 0.99652    0.00285000
       23.6197 0.99624    0.00376000
       24.7811 0.99600    0.00560000
       27.4171 0.99592    0.00610000
       31.3556 0.99525    0.00615000
       41.3267 0.99100    0.00895000
       47.6846 0.988     0.0106000
       56.3545 0.986     0.0118000
       61.9900 0.983     0.0115000
       68.8778 0.979     0.0107000
       82.6533 0.963     0.0101000
       103.317 0.929     0.0178000
       112.709 0.911     0.0283000
       118.076 0.900     0.0353000
       123.980 0.889     0.0454000
       140.886 0.889     0.0554000
       141.691 0.888     0.0558000
       142.506 0.887     0.0576000
       144.163 0.886     0.0613000
       145.859 0.887     0.0648000
       146.722 0.888     0.0654000
       147.595 0.888     0.0633000
       148.479 0.885     0.0637000
       149.373 0.884     0.0653000
       151.195 0.881     0.0682000
       154.975 0.878     0.0752000
       158.949 0.875     0.0818000
       163.132 0.873     0.0871000
       167.541 0.869     0.0927000
       172.194 0.862     0.0997000
       177.114 0.857      0.112000
       182.324 0.855      0.124000
       187.848 0.856      0.136000
       193.719 0.857      0.147000
       199.968 0.859      0.156000
       206.633 0.863      0.162000
       213.759 0.861      0.166000
       221.393 0.856      0.171000
       229.593 0.848      0.180000
       238.423 0.839      0.190000
       247.960 0.828      0.204000
       253.020 0.821      0.213000
       258.292 0.814      0.225000
       263.787 0.809      0.238000
       269.522 0.805      0.254000
       275.511 0.805      0.270000
       281.773 0.807      0.282000
       288.326 0.807      0.292000
       295.190 0.804      0.303000
       302.390 0.799      0.317000
       309.950 0.795      0.334000
       317.897 0.793      0.353000
       326.263 0.791      0.371000
       335.081 0.788      0.391000
       344.389 0.786      0.414000
       354.229 0.783      0.439000
       364.647 0.779      0.473000
       375.697 0.781      0.515000
       387.438 0.805      0.570000
       399.935 0.851      0.596000
       406.492 0.870      0.601000
       413.267 0.887      0.603000
       420.271 0.900      0.601000
       427.517 0.905      0.599000
       442.786 0.901      0.607000
       459.185 0.895      0.635000
       469.977 0.855      0.548000
       476.846 0.896      0.679000
       479.985 0.846      0.565000
       490.040 0.846      0.600000
       499.919 0.850      0.645000
       509.996 0.860      0.695000
       520.050 0.872      0.740000
       530.056 0.890      0.795000
       539.983 0.915      0.825000
       550.044 0.950      0.840000
       559.982 0.985      0.848000
       570.023 1.022      0.850000
       579.888 1.055      0.842000
       590.100 1.085      0.830000
       600.097 1.113      0.813000
       609.838 1.134      0.795000
       619.900 1.146      0.770000
       629.980 1.153      0.750000
       640.062 1.157      0.730000
       650.131 1.155      0.710000
       659.819 1.140      0.700000
       669.800 1.125      0.694000
       680.088 1.107      0.687000
       689.928 1.088      0.680000
       700.057 1.075      0.678000
       710.080 1.060      0.680000
       719.977 1.050      0.685000
       730.153 1.042      0.690000
       740.179 1.038      0.697000
       750.030 1.033      0.704000
       760.147 1.030      0.713000
       770.062 1.029      0.720000
       779.748 1.028      0.730000
       790.185 1.028      0.739000
       799.871 1.029      0.745000
       809.797 1.030      0.752000
       819.974 1.033      0.759000
       829.853 1.037      0.765000
       839.973 1.041      0.770000
       849.760 1.048      0.775000
       859.778 1.053      0.780000
       870.035 1.061      0.784000
       879.915 1.070      0.789000
       890.022 1.080      0.793000
       899.710 1.090      0.798000
       910.279 1.100      0.801000
       919.733 1.110      0.806000
       930.083 1.121      0.809000
       939.955 1.133      0.812000
       950.038 1.146      0.815000
       959.598 1.159      0.819000
       970.110 1.170      0.823000
       980.079 1.180      0.826000
       990.256 1.190      0.831000
       999.839 1.200      0.836000
       1009.61 1.207      0.842000
       1019.57 1.210      0.848000
       1029.73 1.213      0.853000
       1040.10 1.215      0.860000
       1049.79 1.217      0.865000
       1059.66 1.217      0.870000
       1069.72 1.218      0.878000
       1079.97 1.218      0.885000
       1090.41 1.220      0.893000
       1100.09 1.222      0.900000
       1109.94 1.223      0.907000
       1119.96 1.225      0.914000
       1130.17 1.228      0.922000
       1139.52 1.232      0.927000
       1150.09 1.237      0.932000
       1159.78 1.242      0.935000
       1169.62 1.247      0.942000
       1179.64 1.250      0.950000
       1189.83 1.255      0.955000
       1200.19 1.260      0.962000
       1209.56 1.265      0.967000
       1220.28 1.270      0.975000
       1229.96 1.275      0.982000
       1239.80 1.280      0.987000
       1249.92 1.285      0.994000
       1259.96 1.290       1.00000
       1269.90 1.295       1.00500
       1279.99 1.300       1.01200
       1289.98 1.304       1.01700
       1299.99 1.308       1.02000
       1309.88 1.313       1.02700
       1319.92 1.318       1.03200
       1329.97 1.323       1.03800
       1339.89 1.328       1.04500
       1349.96 1.333       1.05000
       1359.88 1.338       1.05300
       1369.94 1.345       1.05800
       1380.01 1.350       1.06300
       1389.91 1.355       1.06700
       1399.95 1.360       1.07200
       1449.89 1.386       1.08900
       1499.88 1.419       1.10200
       1549.94 1.450       1.10800
       1599.95 1.483       1.10600
       1649.99 1.512       1.09300
       1699.99 1.519       1.07000
       1749.89 1.500       1.07000
       1799.94 1.470       1.08500
       1849.90 1.442       1.10700
       1899.79 1.427       1.13500
       1949.98 1.424       1.17000
       2000.00 1.427       1.21500
       2066.33 1.422       1.30600
       2101.36 1.430       1.33400
       2137.59 1.432       1.36400
       2175.09 1.438       1.38800
       2213.93 1.442       1.41800
       2254.18 1.452       1.44200
       2295.93 1.454       1.47800
       2339.25 1.462       1.51000
       2384.23 1.470       1.55000
       2430.98 1.478       1.59000
       2479.60 1.484       1.63600
       2530.20 1.490       1.69800
       2582.92 1.504       1.74800
       2637.87 1.546       1.78400
       2695.22 1.598       1.82200
       2755.11 1.648       1.85200
       2817.73 1.690       1.88200
       2883.26 1.742       1.90000
       2951.90 1.776       1.91800
       3023.90 1.812       1.92000
       3099.50 1.830       1.91600
       3178.97 1.840       1.90400
       3262.63 1.824       1.87800
       3350.81 1.798       1.86000
       3443.89 1.766       1.84600
       3542.29 1.740       1.84800
       3646.47 1.716       1.86200
       3756.97 1.696       1.90600
       3874.38 1.674       1.93600
       3999.35 1.658       1.95600
       4132.67 1.636       1.95800
       4275.17 1.616       1.94000
       4427.86 1.562       1.90400
       4591.85 1.426       1.84600
       4768.46 1.242       1.79600
       4959.20 0.916       1.84000
       5165.83 0.608       2.12000
       5390.44 0.402       2.54000
       5635.45 0.306       2.88000
       6525.26 0.166       3.15000
       6887.78 0.160       3.80000
       7292.94 0.164       4.35000
       7748.75 0.174       4.86000
       8265.33 0.188       5.39000
       8855.71 0.210       5.88000
       9536.92 0.236       6.47000
       10331.7 0.272       7.07000
       11270.9 0.312       7.93000
       12398.0 0.372       8.77000
       12651.0 0.389       8.09000
       12914.6 0.403       8.25000
       13189.4 0.419       8.42000
       13476.1 0.436       8.59000
       13775.6 0.454       8.77000
       14088.6 0.473       8.96000
       14416.3 0.493       9.15000
       14759.5 0.515       9.36000
       15119.5 0.537       9.58000
       15497.5 0.559       9.81000
       15894.9 0.583       10.1000
       16313.2 0.609       10.3000
       16754.1 0.636       10.6000
       17219.4 0.665       10.9000
       17711.4 0.696       11.2000
       18232.4 0.730       11.5000
       18784.8 0.767       11.9000
       19371.9 0.807       12.2000
       19996.8 0.850       12.6000
       20663.3 0.896       13.0000
       21375.9 0.947       13.4000
       22139.3 1.002       13.9000
       22959.3 1.063       14.4000
       23842.3 1.130       14.9000
       24796.0 1.205       15.5000
       25829.2 1.287       16.1000
       26952.2 1.379       16.8000
       28177.3 1.482       17.5000
       29519.0 1.598       18.3000
       30995.0 1.728       19.2000
       31789.7 1.800       19.7000
       32626.3 1.876       20.2000
       33508.1 1.958       20.7000
       34438.9 2.046       21.3000
       35422.9 2.141       21.9000
       36464.7 2.242       22.5000
       37569.7 2.352       23.1000
       38743.8 2.471       23.9000
       39993.5 2.600       24.6000
       41326.7 2.749       25.4000
       42751.7 2.912       26.3000
       44278.6 3.091       27.2000
       45918.5 3.289       28.2000
       47684.6 3.507       29.3000
       49592.0 3.748       30.5000
       51658.3 4.007       31.7000
       53904.3 4.292       32.9000
       56354.5 4.611       34.3000
       59038.1 4.971       35.9000
       61990.0 5.423       37.5000
       63579.5 5.684       38.3000
       65252.6 5.966       39.1000
       67016.2 6.270       40.1000
       68877.8 6.598       41.0000
       70845.7 6.937       42.0000
       72929.4 7.282       43.0000
       75139.4 7.655       44.1000
       77487.5 8.060       45.2000
       79987.1 8.500       46.4000
       82653.3 9.016       47.6000
       85503.5 9.582       48.8000
       88557.1 10.21       50.2000
       91837.0 10.84       51.6000
       95369.2 11.51       53.1000
       99184.0 12.24       54.7000
