;  Optical constants for Au
; 
;   taken from:
;
;   J. H. Weaver, C. Krafka, D. W. Lynch, and E. E. Koch, 'Physik Daten,
;   Physics Data: Optical Properties of Metals', Vol. 18-1 and 18-2,
;   Fach-information zentrum, Karlsruhe, 1981.
;   
;    Lambda (A)            n            k
;-----------------------------------------
   413.27    .86	.48
   416.04    .87	.48
   418.85    .87	.48
   421.70    .87	.48
   424.59    .88	.48
   427.52    .88	.48
   430.49    .88	.48
   433.50    .88	.48
   436.55    .88	.48
   439.65    .87	.48
   442.79    .87	.48
   445.97    .87	.48
   449.20    .86	.49
   452.48    .86	.49
   455.81    .86	.49
   459.19    .86	.50
   462.61    .85	.50
   466.09    .85	.51
   469.62    .85	.51
   473.21    .84	.52
   476.85    .84	.52
   480.54    .83	.53
   484.30    .83	.54
   488.11    .82	.55
   491.98    .82	.56
   495.92    .81	.57
   499.92    .80	.58
   503.98    .80	.60
   508.11    .80	.62
   512.31    .80	.64
   516.58    .80	.66
   520.92    .80	.68
   525.34    .80	.70
   529.83    .81	.73
   534.40    .82	.75
   539.04    .84	.77
   543.77    .85	.79
   548.58    .87	.81 
   553.48    .89	.83
   558.47    .91	.85
   563.55    .94	.86
   568.72    .97	.87
   573.98    1.00	.88
   579.35    1.03	.88
   584.81    1.05	.88
   590.38    1.08	.88
   596.06    1.10	.87
   601.84    1.12	.86
   607.75    1.14	.85
   613.76    1.16	.84
   619.90    1.18	.83
   626.16    1.19	.82
   632.55    1.21	.80
   639.07    1.21	.78
   645.73    1.21	.76
   652.53    1.21	.75
   659.47    1.20	.74
   666.56    1.20	.74
   673.80    1.19	.73
   681.21    1.19	.73
   688.78    1.19	.74
   696.52    1.19	.74
   704.43    1.19	.74
   712.53    1.19	.75	
   720.81    1.19	.75
   729.29    1.19	.76
   737.98    1.19	.76
   746.87    1.19	.77
   755.98    1.20	.78
   765.31    1.20	.78
   774.88    1.21	.79
   779.75    1.21	.80
   784.68    1.21	.80
   789.68    1.22	.81
   794.74    1.22	.81
   799.87    1.22	.81
   805.06    1.23	.82
   810.33    1.23	.82
   815.66    1.24	.83
   821.06    1.24	.83
   826.53    1.25	.84
   832.08    1.26	.84
   837.70    1.26	.84
   843.40    1.27	.85
   849.18    1.28	.85
   855.03    1.29	.85
   860.97    1.29	.86
   866.99    1.30	.86
   873.10    1.31	.86
   879.29    1.32	.86
   885.57    1.33	.86
   891.94    1.34	.86
   898.41    1.35	.86
   904.96    1.36	.86
   911.62    1.37	.86
   918.37    1.38	.85
   925.22    1.40	.85
   932.18    1.41	.84
   939.24    1.42	.84
   946.41    1.43	.83
   953.69    1.44	.82
   961.09    1.44	.80
   968.59    1.45	.79
   976.22    1.45	.77
   983.97    1.45	.76
   991.84    1.44	.74
   999.84    1.44	.73
   1008.0    1.43	.72
   1016.2    1.42	.72
   1024.6    1.40	.71
   1033.2    1.39	.71
   1041.8    1.39	.71
   1050.7    1.38	.71
   1059.7    1.37	.72
   1068.8    1.36	.72
   1078.1    1.36	.73
   1087.5    1.35	.73
   1097.2    1.35	.74
   1107.0    1.34	.74
   1116.9    1.34	.75
   1127.1    1.34	.76
   1137.4    1.34	.77
   1148.0    1.34	.77
   1158.7    1.34	.78
   1169.6    1.34	.79
   1180.8    1.35	.79
   1192.1    1.35	.80
   1203.7    1.36	.80
   1215.5    1.36	.80
   1227.5    1.37	.80
   1239.8    1.37	.80
   1252.3    1.37	.79
   1265.1    1.37	.79
   1278.1    1.37	.78
   1291.5    1.36	.78
   1305.1    1.34	.78 
   1318.9    1.33	.78   
