;  Optical constants for ceramic BeO
; 
;   taken from:
;
;   'Handbook of Optical Constants of Solids II', Ed. by Edward D. Palik,
;   Academic Press, Inc., 1991.
;   
;    Lambda (A)            n            k
;-----------------------------------------
       50420.0       1.47260      0.112500
       55700.0       1.42550     0.0735000
       61550.0       1.35710     0.0743000
       64690.0       1.31500     0.0697000
       68000.0       1.26170     0.0586000
       69370.0       1.21320     0.0544000
       69720.0       1.19680     0.0611000
       70420.0       1.17110     0.0831000
       70770.0       1.16360      0.100600
       71480.0       1.17140      0.135400
       71840.0       1.18380      0.143500
       72200.0       1.19720      0.143000
       72920.0       1.20400      0.125900
       73290.0       1.20020      0.118500
       74020.0       1.19000      0.108700
       74390.0       1.18500      0.105800
       75140.0       1.17440     0.0969000
       75510.0       1.16700     0.0916000
       76270.0       1.14690     0.0822000
       76650.0       1.13690     0.0802000
       77420.0       1.11690     0.0786000
       77800.0       1.10720     0.0760000
       78590.0       1.08580     0.0695000
       79370.0       1.06210     0.0638000
       79770.0       1.04840     0.0621000
       80570.0       1.01800     0.0607000
       81370.0      0.990000     0.0633000
       81790.0      0.977000     0.0623000
       82600.0      0.947600     0.0632000
       83020.0      0.934700     0.0604000
       83850.0      0.899600     0.0553000
       84690.0      0.858600     0.0512000
       85110.0      0.835400     0.0505000
       85960.0      0.787400     0.0523000
       86830.0      0.738800     0.0555000
       87700.0      0.677800     0.0587000
       89020.0      0.573300     0.0678000
       89910.0      0.479700     0.0777000
       90810.0      0.359000      0.121600
       91730.0      0.246900      0.217300
       92180.0      0.209800      0.279400
       93110.0      0.160200      0.410300
       94040.0      0.146300      0.527700
       94980.0      0.150700      0.624600
       95930.0      0.153100      0.704100
       96900.0      0.151000      0.778300
       97870.0      0.146600      0.853500
       98850.0      0.145300      0.930900
       99840.0      0.148800       1.00800
       100800.      0.156400       1.08320
       101900.      0.166900       1.15560
       102900.      0.179100       1.22480
       103900.      0.191100       1.29190
       104900.      0.203200       1.35800
       106000.      0.215100       1.42350
       107600.      0.232000       1.52150
       108700.      0.242400       1.58760
       109800.      0.252500       1.65500
       110900.      0.262200       1.72420
       112000.      0.270400       1.79570
       113700.      0.280400       1.90970
       114800.      0.287200       1.99380
       116000.      0.295900       2.08180
       117700.      0.312500       2.22350
       118900.      0.322400       2.32820
       120100.      0.335900       2.44190
       121900.      0.363000       2.63360
       123100.      0.391200       2.77910
       125000.      0.455100       3.02360
       126200.      0.518400       3.20610
       128100.      0.655900       3.50650
       129400.      0.791800       3.72300
       131400.       1.06950       4.03850
       133300.       1.40920       4.33190
       134700.       1.65650       4.52460
       136700.       2.12430       4.89100
       138800.       2.93430       5.26510
       140800.       4.12660       5.18340
       143000.       5.10680       4.37530
       144400.       5.43890       3.74390
       146600.       5.65950       2.83320
       148800.       5.53840       2.05070
       151800.       5.14460       1.32330
       154100.       4.80860       1.04890
       156400.       4.55460      0.844800
       158800.       4.35840      0.729800
       161200.       4.18150      0.616600
       163600.       4.03670      0.544500
       166100.       3.90540      0.478600
       169400.       3.74420      0.417300
       171900.       3.64850      0.399300
       175400.       3.53870      0.366200
       178100.       3.47280      0.356600
       181700.       3.39310      0.338200
       185300.       3.33610      0.323800
       188100.       3.29780      0.309100
       191900.       3.24640      0.289200
       195700.       3.20340      0.270100
       199700.       3.15950      0.249900
       203700.       3.11290      0.237500
       207800.       3.07340      0.232300
       213100.       3.03750      0.227700
       217400.       3.01790      0.219900
       221800.       2.99610      0.207100
       227400.       2.96830      0.192800
       233100.       2.93760      0.180100
       237800.       2.91650      0.171800
       243800.       2.89050      0.166500
       249900.       2.86830      0.160200
       256300.       2.84850      0.156400
       262500.       2.83270      0.152200
       270700.       2.81380      0.145700
       277500.       2.80090      0.139700
       284600.       2.78690      0.136000
       294600.       2.77070      0.129800
       302100.       2.75990      0.125500
       312900.       2.74590      0.119800
       322500.       2.73480      0.115100
       333800.       2.72270      0.110100
       344000.       2.71310      0.106100
       356100.       2.70270      0.101800
       370600.       2.69170     0.0973000
       383900.       2.68280     0.0938000
       399500.       2.67350     0.0903000
       415800.       2.66500     0.0871000
       434800.       2.65620     0.0841000
       452500.       2.64910     0.0819000
       475700.       2.64100     0.0798000
       500000.       2.63360     0.0784000
       525500.       2.62700     0.0779000
       552500.       2.62080     0.0799000
