;  Optical constants for hcp Co (bulk and polycrystalline films)
; 
;   taken from:
;
;   'Handbook of Optical Constants of Solids II', Ed. by Edward D. Palik,
;   Academic Press, Inc., 1991.
;   
;    Lambda (A)            n            k
;-----------------------------------------
       6.19900      0.999600   8.00000e-05
       6.70162      0.999600   0.000100000
       7.34479      0.999400   0.000140000
       7.70541      0.999400   0.000160000
       7.99871      0.999200   0.000200000
       9.12960      0.999200   0.000300000
       9.99839      0.999000   0.000420000
       10.7997      0.998800   0.000520000
       12.2028      0.998800   0.000800000
       13.0988      0.999200    0.00104000
       13.3989      0.999200    0.00108000
       13.8001      0.999200    0.00106000
       14.0999      0.999200    0.00116000
       14.4989      0.998800    0.00126000
       15.1992      0.999000    0.00146000
       15.4975      0.999200    0.00156000
       15.9974       1.00060    0.00170000
       16.3003      0.999400   0.000220000
       16.9999      0.998800   0.000240000
       17.0983      0.998600   0.000260000
       19.9968      0.997600   0.000420000
       23.4367      0.996400   0.000700000
       29.9976      0.993800    0.00150000
       33.6902      0.992000    0.00220000
       39.9935      0.981000    0.00340000
       46.0892      0.985800    0.00520000
       49.9919      0.983800    0.00640000
       54.5927      0.981000    0.00840000
       60.0097      0.977000     0.0108000
       65.0131      0.974800     0.0132000
       70.0056      0.972000     0.0156000
       79.9871      0.965600     0.0218000
       89.9710      0.958600     0.0290000
       99.9839      0.955000     0.0352000
       110.994      0.949200     0.0428000
       118.983      0.949200     0.0490000
       123.980      0.941400     0.0528000
       130.919       1.00000     0.0610000
       138.062       1.00000     0.0700000
       154.975       1.00000     0.0870000
       176.862       1.00000      0.120000
       199.968       1.00000      0.180000
       219.823       1.00000     0.0800000
       249.960       1.00000      0.110000
       279.865       1.00000      0.140000
       319.536       1.00000      0.170000
       350.226       1.00000      0.230000
       399.935       1.00000      0.260000
       499.919       1.00000      0.350000
       598.937       1.00000      0.650000
       700.452       1.00000      0.770000
       799.871       1.00000      0.900000
       999.839       1.00000       1.08000
       1239.80       1.00000       1.31000
       1768.62       1.00000       1.68000
       2999.76       1.06000       2.29000
       3649.69       1.10000       2.76000
       3999.35       1.25000       3.05000
       4500.18       1.40000       3.22000
       4999.19       1.56000       3.43000
       5500.44       1.71000       3.66000
       5998.06       1.86000       4.02000
       6497.90       2.00000       4.23000
       7000.56       2.18000       4.47000
       7998.71       2.56000       4.92000
       8997.10       2.93000       5.28000
       9998.39       3.21000       5.57000
       12001.9       3.77000       6.12000
       13983.8       4.45000       6.52000
       15995.4       5.03000       6.63000
       17973.3       5.25000       6.69000
       20499.3       5.15000       6.96000
       22997.6       5.13000       6.90000
       24996.0       4.96000       7.34000
       27496.1       4.75000       8.23000
       30995.0       4.60000       9.03000
       34992.9       4.49000       10.0600
       38999.7       4.36000       10.9100
       43995.7       4.25000       12.7300
       47998.4       4.25000       13.8900
       52005.0       4.25000       15.1300
       53998.3       4.26000       15.6800
       57002.3       4.37000       16.4400
       60983.8       4.70000       17.3500
       65013.1       4.69000       18.7100
       71008.0       4.66000       20.9300
       79987.1       4.89000       23.7300
       90036.3       5.34000       26.6600
       99983.9       5.88000       29.3700
       110009.       6.55000       32.3400
       120019.       7.20000       35.1300
       129999.       7.75000       37.8300
       139995.       8.49000       40.8100
       149988.       9.16000       43.4700
       159995.       10.1100       46.3100
       169999.       10.4400       48.5500
