;  Optical constants for Cu
; 
;   taken from:
;
;   'Handbook of Optical Constants of Solids', Ed. by Edward D. Palik,
;   Academic Press, Inc., 1985.
;   
;    Lambda (A)            n            k
;-----------------------------------------
       1.37756       1.00100   3.65000e-07
       1.39303       1.00100   3.56000e-07
       1.54975       1.00100   5.38000e-07
       3.09950       1.00000   6.62000e-06
       4.13267       1.00000   9.49000e-05
       8.26533       1.00000   0.000273000
       10.3317      0.999000   0.000624000
       11.2709      0.999000   0.000823000
       12.3980      0.999000   0.000851000
       13.7756       1.00000   0.000174000
       15.4975      0.999000   0.000263000
       17.7114      0.998000   0.000395000
       20.6633      0.997000   0.000651000
       24.7960      0.997000    0.00111000
       30.9950      0.993000    0.00245000
       41.3267      0.988000    0.00513000
       61.9900      0.978000     0.0159000
       82.6533      0.969000     0.0310000
       103.317      0.965000     0.0540000
       112.709      0.968000     0.0599000
       118.076      0.968000     0.0625000
       123.980      0.967000     0.0653000
       130.505      0.965000     0.0693000
       134.761      0.963000     0.0744000
       137.756      0.963000     0.0788000
       140.886      0.963000     0.0834000
       144.163      0.966000     0.0877000
       147.595      0.969000     0.0911000
       149.373      0.971000     0.0923000
       151.195      0.973000     0.0934000
       153.062      0.974000     0.0943000
       154.975      0.977000     0.0946000
       156.937      0.979000     0.0941000
       158.949      0.980000     0.0936000
       161.013      0.982000     0.0921000
       163.132      0.984000     0.0910000
       165.307      0.983000     0.0872000
       167.541      0.979000     0.0850000
       169.836      0.977000     0.0857000
       172.194      0.975000     0.0868000
       174.620      0.974000     0.0881000
       177.114      0.972000     0.0893000
       182.324      0.968000     0.0927000
       187.848      0.967000     0.0963000
       193.719      0.965000      0.102000
       199.968      0.965000      0.107000
       206.633      0.966000      0.109000
       213.759      0.964000      0.110000
       221.393      0.960000      0.114000
       229.593      0.957000      0.120000
       238.423      0.954000      0.126000
       247.960      0.953000      0.134000
       258.292      0.952000      0.140000
       269.522      0.951000      0.146000
       281.773      0.948000      0.151000
       295.190      0.942000      0.157000
       309.950      0.934000      0.167000
       326.263      0.927000      0.180000
       344.389      0.922000      0.193000
       364.647      0.910000      0.205000
       387.438      0.891000      0.223000
       413.267      0.856000      0.262000
       427.517      0.849000      0.302000
       442.786      0.862000      0.346000
       459.185      0.884000      0.382000
       476.846      0.921000      0.403000
       495.920      0.960000      0.396000
       516.583      0.961000      0.373000
       539.043      0.943000      0.366000
       563.545      0.917000      0.381000
       590.381      0.897000      0.411000
       619.900      0.882000      0.455000
       652.526      0.883000      0.507000
       688.778      0.890000      0.561000
       729.294      0.913000      0.620000
       774.875      0.954000      0.673000
       799.871      0.981000      0.695000
       826.533       1.01000      0.707000
       855.034       1.03000      0.717000
       885.571       1.06000      0.724000
       953.692       1.08000      0.724000
       1033.17       1.09000      0.731000
       1127.09       1.07000      0.754000
       1239.80       1.04000      0.818000
       1305.05       1.03000      0.867000
       1377.56       1.03000      0.921000
       1458.59       1.03000      0.979000
       1549.75       1.03000       1.03000
       1653.07       1.01000       1.09000
       1771.14      0.972000       1.20000
       1907.38      0.958000       1.37000
       2066.33       1.04000       1.59000
       2137.59       1.10000       1.67000
       2213.93       1.18000       1.74000
       2295.93       1.28000       1.78000
       2384.23       1.38000       1.80000
       2479.60       1.47000       1.78000
       2582.92       1.53000       1.71000
       2695.22       1.52000       1.67000
       2817.73       1.49000       1.64000
       2951.90       1.42000       1.64000
       3099.50       1.34000       1.72000
       3262.63       1.34000       1.81000
       3443.89       1.31000       1.87000
       3646.47       1.27000       1.95000
       3874.38       1.18000       2.21000
       4132.67       1.18000       2.21000
       4427.86       1.17000       2.36000
       4768.46       1.15000       2.50000
       5165.83       1.12000       2.60000
       5390.44       1.04000       2.59000
       5635.45      0.826000       2.60000
       5903.81      0.468000       2.81000
       6199.00      0.272000       3.24000
       6525.26      0.214000       3.67000
       6701.62      0.215000       3.86000
       6887.78      0.213000       4.05000
       7084.57      0.214000       4.24000
       7292.94      0.223000       4.43000
       8265.33      0.260000       5.26000
       12398.0      0.433000       8.46000
       12651.0      0.496000       6.78000
       12914.6      0.505000       6.92000
       13189.4      0.515000       7.06000
       13476.1      0.525000       7.21000
       13775.6      0.536000       7.36000
       14088.6      0.547000       7.53000
       14416.3      0.559000       7.70000
       14759.5      0.572000       7.88000
       15119.5      0.586000       8.06000
       15497.5      0.606000       8.26000
       15894.9      0.627000       8.47000
       16313.2      0.649000       8.69000
       16754.1      0.672000       8.92000
       17219.4      0.697000       9.16000
       17711.4      0.723000       9.41000
       18232.4      0.752000       9.68000
       18784.8      0.782000       9.97000
       19371.9      0.815000       10.3000
       19996.8      0.850000       10.6000
       20663.3      0.890000       11.0000
       21375.9      0.933000       11.3000
       22139.3      0.980000       11.8000
       22959.3       1.03000       12.2000
       23842.3       1.09000       12.7000
       24796.0       1.15000       13.2000
       25829.2       1.22000       13.7000
       26952.2       1.29000       14.4000
       28177.3       1.37000       15.0000
       29519.0       1.47000       15.7000
       30995.0       1.59000       16.5000
       32626.3       1.73000       17.4000
       34438.9       1.90000       18.4000
       36464.7       2.09000       19.6000
       38743.8       2.32000       20.8000
       41326.7       2.59000       22.2000
       44278.6       2.92000       23.7000
       47684.6       3.32000       25.4000
       51658.3       3.81000       27.5000
       56354.5       4.44000       30.0000
       61990.0       5.23000       33.0000
       68877.8       6.23000       36.3000
       77487.5       7.66000       40.3000
       82653.3       8.57000       42.6000
       88557.1       9.64000       45.1000
       95369.2       10.8000       47.5000
