;  Optical constants for Fe
; 
;   taken from:
;
;   'Handbook of Optical Constants of Solids II', Ed. by Edward D. Palik,
;   Academic Press, Inc., 1991.
;   
;    Lambda (A)            n            k
;-----------------------------------------
       1.23980      0.999985   1.32000e-06
       1.29836      0.999983   1.57000e-06
       1.35988      0.999982   1.86000e-06
       1.42408      0.999980   2.19000e-06
       1.49140      0.999979   2.59000e-06
       1.56205      0.999977   3.04000e-06
       1.63584      0.999976   3.58000e-06
       1.67405      0.999975   3.88000e-06
       1.71314      0.999975   4.20000e-06
       1.75336      0.999975   5.70000e-07
       1.79421      0.999972   6.21000e-07
       1.83620      0.999970   6.77000e-07
       1.87905      0.999968   7.38000e-07
       1.96794      0.999964   8.77000e-07
       2.06118      0.999961   1.04000e-06
       2.15843      0.999956   1.24000e-06
       2.26076      0.999952   1.47000e-06
       2.36739      0.999947   1.75000e-06
       2.47960      0.999942   2.08000e-06
       2.59644      0.999936   2.48000e-06
       2.71946      0.999929   2.94000e-06
       2.84815      0.999922   3.50000e-06
       2.98244      0.999914   4.16000e-06
       3.12371      0.999906   4.95000e-06
       3.27124      0.999896   5.88000e-06
       3.42581      0.999886   6.99000e-06
       3.58842      0.999875   8.30000e-06
       3.75811      0.999862   9.86000e-06
       3.93587      0.999848   1.17000e-05
       4.12168      0.999834   1.39000e-05
       4.31685      0.999817   1.65000e-05
       4.52152      0.999799   1.96000e-05
       4.73387      0.999779   2.32000e-05
       4.95920      0.999757   2.76000e-05
       5.19397      0.999733   3.27000e-05
       5.43772      0.999707   3.87000e-05
       5.69499      0.999679   4.58000e-05
       5.96631      0.999647   5.42000e-05
       6.24584      0.999614   6.41000e-05
       6.54248      0.999576   7.57000e-05
       6.85351      0.999536   8.94000e-05
       7.17477      0.999492   0.000106000
       7.51394      0.999445   0.000124000
       7.87175      0.999393   0.000146000
       8.24335      0.999337   0.000172000
       8.63371      0.999278   0.000203000
       9.04303      0.999214   0.000238000
       9.47135      0.999146   0.000279000
       9.91840      0.999075   0.000328000
       10.3836      0.999000   0.000384000
       10.8754      0.998920   0.000449000
       11.3952      0.998840   0.000526000
       11.9326      0.998760   0.000615000
       12.4942      0.998690   0.000719000
       13.0850      0.998620   0.000838000
       13.7040      0.998570   0.000980000
       14.0233      0.998560    0.00106000
       14.3512      0.998580    0.00115000
       14.6861      0.998630    0.00110000
       15.0297      0.998570    0.00119000
       15.3821      0.998560    0.00128000
       15.7395      0.998580    0.00138000
       16.1076      0.998640    0.00150000
       16.4845      0.998750    0.00162000
       16.8703      0.998970    0.00175000
       17.2650      0.999580    0.00189000
       17.6685      0.999760   0.000240000
       18.0808      0.999100   0.000257000
       18.5045      0.998760   0.000276000
       18.9369      0.998510   0.000298000
       19.3779      0.998310   0.000322000
       20.2946      0.997940   0.000371000
       21.2549      0.997590   0.000429000
       22.2585      0.997240   0.000499000
       23.3133      0.996870   0.000580000
       24.4151      0.996490   0.000675000
       25.5682      0.996080   0.000785000
       26.7775      0.995640   0.000913000
       28.0434      0.995170    0.00106000
       29.3722      0.994650    0.00123000
       30.7643      0.994110    0.00143000
       32.2193      0.993510    0.00165000
       33.7361      0.992860    0.00193000
       35.3320      0.992180    0.00225000
       37.0090      0.991470    0.00263000
       38.7559      0.990720    0.00301000
       40.5827      0.989900    0.00344000
       42.5026      0.989000    0.00394000
       44.5171      0.988100    0.00451000
       46.6266      0.987200    0.00507000
       48.8302      0.986200    0.00568000
       51.1258      0.985000    0.00635000
       53.5551      0.983800    0.00711000
       56.0742      0.982300    0.00800000
       58.7305      0.980900    0.00909000
       61.5285      0.979400     0.0103000
       64.4387      0.977900     0.0118000
       67.4905      0.976500     0.0131000
       70.6439      0.974900     0.0145000
       74.0179      0.973200     0.0161000
       77.4875      0.971300     0.0178000
       81.1919      0.969400     0.0197000
       85.0343      0.967400     0.0218000
       89.0022      0.965300     0.0240000
       93.2180      0.963100     0.0264000
       97.6220      0.960900     0.0291000
       102.294      0.958700     0.0317000
       107.064      0.956100     0.0345000
       112.199      0.953400     0.0375000
       117.517      0.950500     0.0408000
       122.996      0.947400     0.0443000
       125.906      0.945700     0.0461000
       128.851      0.944000     0.0481000
       131.852      0.942200     0.0501000
       134.937      0.940300     0.0522000
       138.093      0.938300     0.0544000
       141.320      0.936300     0.0567000
       144.617      0.934100     0.0592000
       151.472      0.929500     0.0644000
       158.623      0.924300     0.0702000
       166.126      0.917200     0.0770000
       173.983      0.910200     0.0877000
       182.216      0.903400      0.100000
       190.827      0.896900      0.121000
       199.839      0.901300      0.149000
       209.284      0.925200      0.179000
       219.201      0.975100      0.191000
       224.317       1.01200      0.185000
       229.550       1.10900      0.175000
       234.944       1.00400     0.0536000
       240.411      0.969500     0.0544000
       476.846      0.890000      0.376000
       480.543      0.887000      0.383000
       484.297      0.886000      0.395000
       488.110      0.884000      0.402000
       491.984      0.881000      0.408000
       495.920      0.877000      0.411000
       499.919      0.874000      0.418000
       503.984      0.876000      0.434000
       508.115      0.872000      0.436000
       512.314      0.870000      0.443000
       516.583      0.867000      0.450000
       520.924      0.865000      0.468000
       525.339      0.859000      0.477000
       529.829      0.861000      0.482000
       534.397      0.862000      0.493000
       539.043      0.863000      0.504000
       543.772      0.861000      0.511000
       548.584      0.863000      0.515000
       553.482      0.862000      0.522000
       558.468      0.865000      0.537000
       563.545      0.872000      0.556000
       568.716      0.874000      0.561000
       573.981      0.875000      0.571000
       579.346      0.875000      0.571000
       584.811      0.878000      0.575000
       590.381      0.882000      0.590000
       596.058      0.892000      0.605000
       601.845      0.898000      0.613000
       607.745      0.903000      0.620000
       613.762      0.905000      0.624000
       619.900      0.910000      0.632000
       626.162      0.919000      0.636000
       632.551      0.924000      0.644000
       639.072      0.927000      0.647000
       645.729      0.933000      0.648000
       652.526      0.936000      0.652000
       659.468      0.938000      0.656000
       666.559      0.938000      0.656000
       673.804      0.941000      0.659000
       681.209      0.941000      0.659000
       688.778      0.939000      0.665000
       696.517      0.944000      0.672000
       704.432      0.946000      0.682000
       712.529      0.945000      0.688000
       720.814      0.947000      0.697000
       729.294      0.948000      0.707000
       737.976      0.952000      0.719000
       746.867      0.955000      0.723000
       755.976      0.951000      0.731000
       765.309      0.944000      0.742000
       774.875      0.940000      0.750000
       784.684      0.941000      0.765000
       794.744      0.943000      0.774000
       805.065      0.945000      0.783000
       815.658      0.949000      0.791000
       826.533      0.952000      0.798000
       837.703      0.959000      0.824000
       849.178      0.974000      0.847000
       860.972      0.988000      0.870000
       873.099      0.993000      0.881000
       885.571       1.00000      0.889000
       898.406       1.00000      0.898000
       911.618       1.01000      0.911000
       925.224       1.02000      0.925000
       939.242       1.03000      0.935000
       953.692       1.05000      0.951000
       968.594       1.06000      0.964000
       983.968       1.08000      0.972000
       999.839       1.09000      0.968000
       1016.23       1.10000      0.971000
       1033.17       1.10000      0.969000
       1050.68       1.11000      0.967000
       1068.79       1.12000      0.968000
       1087.54       1.11000      0.958000
       1106.96       1.11000      0.953000
       1127.09       1.11000      0.950000
       1147.96       1.10000      0.959000
       1169.62       1.07000      0.991000
       1192.12       1.07000       1.02000
       1215.49       1.06000       1.06000
       1239.80       1.05000       1.09000
       1265.10       1.08000       1.13000
       1291.46       1.09000       1.15000
       1318.94       1.10000       1.17000
       1347.61       1.12000       1.19000
       1377.56       1.12000       1.20000
       1408.86       1.13000       1.22000
       1441.63       1.13000       1.24000
       1475.95       1.13000       1.26000
       1511.95       1.13000       1.28000
       1549.75       1.13000       1.32000
       1589.49       1.15000       1.32000
       1631.32       1.15000       1.37000
       1675.41       1.15000       1.40000
       1721.94       1.13000       1.45000
       1771.14       1.15000       1.49000
       1823.24       1.20000       1.54000
       1878.48       1.22000       1.61000
       1937.19       1.23000       1.67000
       1999.68       1.28000       1.71000
       2066.33       1.30000       1.73000
       2137.59       1.32000       1.75000
       2213.93       1.32000       1.78000
       2295.93       1.31000       1.82000
       2384.23       1.32000       1.88000
       2479.60       1.31000       1.95000
       9998.39       3.23000       4.35000
       11109.3       3.32000       4.65000
       12499.2       3.42000       5.04000
       14285.1       3.53000       5.54000
       16666.2       3.67000       6.21000
       20000.0       3.84000       7.16000
       21052.8       3.92000       7.50000
       22222.6       3.98000       7.80000
       23530.1       4.04000       8.18000
       25001.0       4.13000       8.59000
       26668.1       4.22000       9.02000
       28573.4       4.30000       9.55000
       30764.3       4.39000       10.1000
       33328.0       4.45000       10.8000
       36357.8       4.51000       11.6000
       39993.5       4.54000       12.6000
       44437.3       4.59000       13.8000
       49991.9       4.59000       15.4000
       52623.1       4.60000       16.2000
       55546.6       4.63000       17.1000
       58814.0       4.66000       18.1000
       62489.9       4.96000       19.2000
       66655.9       4.75000       20.5000
       71417.0       4.89000       22.0000
       76910.7       5.10000       23.7000
       83319.9       5.37000       25.6000
       90894.4       5.59000       27.8000
       99983.9       5.81000       30.4000
       105246.       5.95000       32.0000
       111093.       6.12000       33.7000
       117628.       6.31000       35.7000
       124992.       6.48000       37.7000
       133326.       6.88000       40.3000
       142851.       7.30000       43.2000
       153840.       7.71000       46.5000
       166662.       8.38000       50.3000
       181816.       9.04000       54.7000
       200000.       9.87000       60.1000
       208335.       10.3000       62.6000
       217394.       10.7000       65.4000
       227278.       11.3000       68.6000
       238103.       12.0000       71.9000
       250010.       13.0000       75.7000
       263171.       14.2000       79.8000
       277795.       15.7000       84.5000
       294140.       17.7000       89.3000
       312450.       19.9000       94.0000
       333280.       22.5000       100.000
       357085.       25.2000       106.000
       384553.       29.1000       114.000
       416599.       33.6000       122.000
       454472.       38.6000       130.000
       499919.       45.7000       141.000
       499919.       43.2000       115.000
       555466.       54.2000       152.000
       571336.       51.2000       126.000
       666559.       61.3000       140.000
       799871.       75.2000       158.000
       999839.       95.4000       182.000
   1.24992e+06       120.000       207.000
   1.53840e+06       147.000       230.000
   2.00000e+06       183.000       260.000
   2.85734e+06       238.000       306.000
