;  Optical constants for Ge
; 
;   taken from:
;
;   'Handbook of Optical Constants of Solids', Ed. by Edward D. Palik,
;   Academic Press, Inc., 1985.
;   
;    Lambda (A)            n            k
;-----------------------------------------
       23.6018      0.997410   0.000980000
       31.4032      0.995900    0.00205000
       43.9957      0.993850    0.00430000
       66.9800      0.990500    0.00950000
       1239.80      0.930000      0.860000
       1377.56      0.920000       1.14000
       1458.59      0.920000       1.20000
       1549.75      0.920000       1.40000
       1771.14       1.00000       1.80000
       1907.38       1.10000       2.05000
       2066.33       1.30000       2.34000
       2066.33       1.02200       2.77400
       2087.21       1.07300       2.80100
       2101.36       1.10800       2.83100
       2122.95       1.16700       2.86200
       2137.59       1.20900       2.87300
       2156.17       1.48000       2.40000
       2159.93       1.27300       2.87400
       2175.09       1.29300       2.16300
       2198.23       1.34500       2.85200
       2213.93       1.36000       2.84600
       2237.91       1.37200       2.84200
       2254.18       1.38000       2.84200
       2254.18       1.55000       2.40000
       2279.04       1.38700       2.84900
       2295.93       1.38300       2.85400
       2321.72       1.37700       2.87700
       2339.25       1.37100       2.89700
       2361.52       1.57000       2.70000
       2366.03       1.36600       2.93800
       2384.23       1.36400       2.97300
       2412.06       1.36600       3.03100
       2430.98       1.37000       3.07300
       2459.92       1.38200       3.14600
       2479.60       1.39400       3.19700
       2479.60       1.60000       2.86000
       2509.72       1.41700       3.28200
       2530.20       1.43500       3.34200
       2561.57       1.47000       3.43900
       2582.92       1.49800       3.50900
       2615.61       1.54600       3.62400
       2637.87       1.58600       3.70900
       2671.98       1.65900       3.85200
       2695.22       1.72000       3.96000
       2730.84       1.83900       4.14700
       2755.11       1.95300       4.29700
       2792.34       2.22600       4.54300
       2817.73       2.51600       4.66900
       2856.68       3.03800       4.65300
       2883.26       3.33800       4.50700
       2924.06       3.63300       4.20700
       2951.90       3.74500       4.00900
       2994.69       3.83700       3.75600
       3023.90       3.86900       3.61400
       3068.81       3.89600       3.43600
       3099.50       3.90500       3.33600
       3146.70       3.91600       3.20900
       3178.97       3.92000       3.13700
       3228.65       3.93000       3.04300
       3262.63       3.93600       2.98600
       3314.97       3.94900       2.90900
       3350.81       3.95800       2.86300
       3406.04       3.97400       2.79900
       3443.89       3.98500       2.75900
       3502.26       4.00500       2.70200
       3542.29       4.02000       2.66700
       3604.07       4.04800       2.61500
       3646.47       4.07000       2.57900
       3711.98       4.10600       2.51700
       3756.97       4.12800       2.46900
       3826.54       4.15000       2.39200
       3874.38       4.15700       2.34000
       3948.41       4.15300       2.26200
       3999.35       4.14100       2.21500
       4078.29       4.10700       2.16400
       4132.67       4.08200       2.14500
       4217.01       4.05200       2.13500
       4275.17       4.03700       2.14000
       4365.49       4.03000       2.16200
       4427.86       4.03500       2.18100
       4524.82       4.05800       2.21500
       4591.85       4.08200       2.24000
       4696.21       4.13300       2.28100
       4768.46       4.18000       2.30900
       4881.10       4.26700       2.35300
       4959.20       4.34000       2.38400
       5081.15       4.48200       2.42900
       5165.83       4.61000       2.45500
       5298.29       4.88300       2.43400
       5390.44       5.06200       2.31800
       5534.82       5.19800       2.12500
       5635.45       5.28300       2.04900
       5793.46       5.55400       1.92400
       5903.81       5.74800       1.63400
       6047.81       5.90000       0.00000
       6077.45       5.70800       1.15000
       6199.00       5.58800      0.933000
       6199.00       5.64000       0.00000
       6357.95       5.50000       0.00000
       6525.26       5.38000       0.00000
       6525.26       5.29400      0.638000
       6701.62       5.21000       0.00000
       6738.04       5.15200      0.537000
       6887.78       5.06700      0.500000
       6887.78       5.08000       0.00000
       7084.57       4.99000       0.00000
       7125.29       4.96100      0.430000
       7292.94       4.89700      0.401000
       7292.94       4.95000       0.00000
       7559.76       4.81600      0.364000
       7748.75       4.76300      0.345000
       7748.75       4.75000      0.308000
       8050.65       4.68400      0.316000
       8265.33       4.65300      0.298000
       8265.33       4.64000      0.237000
       8855.71       4.56000      0.190000
       9536.92       4.49500      0.167000
       9998.39       4.61733       0.00000
       10331.7       4.42000      0.123000
       11270.9       4.38500      0.103000
       12001.9       4.35673       0.00000
       12398.0       4.32500     0.0809000
       13775.6       4.28500     0.0745000
       13999.5       4.23840       0.00000
       15497.5       4.27500    0.00567000
       15997.4       4.17262       0.00000
       17711.4       4.18000   0.000282000
       17999.4       4.13164       0.00000
       17999.4       4.14300       0.00000
       18499.0       4.13500       0.00000
       19000.8       4.12900       0.00000
       20000.0       4.11600       0.00000
       20000.0       4.10415       0.00000
       20999.3       4.10400       0.00000
       21997.9       4.09200       0.00000
       21997.9       4.08469       0.00000
       22997.6       4.08500       0.00000
       23999.2       4.07800       0.00000
       23999.2       4.07038       0.00000
       25001.0       4.07200       0.00000
       25541.8       4.06230       0.00000
       25997.1       4.06800       0.00000
       25997.1       4.05951       0.00000
       26519.8       4.05754       0.00000
       27320.4       4.05310       0.00000
       27999.1       4.05105       0.00000
       28560.2       4.04947       0.00000
       29582.4       4.04595       0.00000
       29997.6       4.04433       0.00000
       30902.3       4.04292       0.00000
       32003.1       4.03889       0.00000
       33995.1       4.03443       0.00000
       35998.8       4.03072       0.00000
       37995.7       4.02760       0.00000
       39993.5       4.02495       0.00000
       41203.1       4.02457       0.00000
       41998.6       4.02268       0.00000
       43995.7       4.02072       0.00000
       46003.7       4.01901       0.00000
       47998.4       4.01751       0.00000
       49991.9       4.01619       0.00000
       51896.2       4.01617       0.00000
       52005.0       4.01503       0.00000
       53998.3       4.01399       0.00000
       55998.2       4.01305       0.00000
       57988.8       4.01222       0.00000
       60009.7       4.01146       0.00000
       61990.0       4.01078       0.00000
       64006.2       4.01015       0.00000
       65981.9       4.00958       0.00000
       68008.8       4.00906       0.00000
       70005.6       4.00858       0.00000
       71997.7       4.00814       0.00000
       74017.9       4.00773       0.00000
       76014.7       4.00736       0.00000
       77974.8       4.00701       0.00000
       79987.1       4.00668       0.00000
       79987.1       4.00748       0.00000
       81997.4       4.00637       0.00000
       82324.0       4.00743       0.00000
       83997.3       4.00609       0.00000
       85977.8       4.00582       0.00000
       87991.5       4.00556       0.00000
       89971.0       4.00533       0.00000
       89971.0       4.00620       0.00000
       91973.3       4.00510       0.00000
       93995.5       4.00489       0.00000
       95959.8       4.00469       0.00000
       98007.9       4.00449       0.00000
       99983.9       4.00431       0.00000
       99983.9       4.00525       0.00000
       102717.       4.00571       0.00000
       104979.       4.00389       0.00000
       110009.       4.00351       0.00000
       110009.       4.00436       0.00000
       115009.       4.00316       0.00000
       120019.       4.00285       0.00000
       120019.       4.00398       0.00000
       123609.       4.00627       0.00000
       124992.       4.00255       0.00000
       129999.       4.00228       0.00000
       129999.       4.00352       0.00000
       134996.       4.00202       0.00000
       139995.       4.00177       0.00000
       139995.       4.00315       0.00000
       144989.       4.00153       0.00000
       149988.       4.00130       0.00000
       154994.       4.00107       0.00000
       159995.       4.00086       0.00000
       169999.       4.00043       0.00000
       179994.       4.00001       0.00000
       189979.       3.99958       0.00000
       200000.       3.99915   0.000239000
       219979.       3.99825       0.00000
       239992.       3.99728       0.00000
       259971.       3.99621       0.00000
       279991.       3.99500       0.00000
       299976.       3.99363       0.00000
       350028.       3.98925       0.00000
       399936.       3.98272       0.00000
       714170.       4.00600    0.00102000
       754595.       4.00600    0.00114000
       799871.       4.00600    0.00127000
       850927.       4.00600    0.00162000
       908944.       4.00630    0.00210000
       975452.       4.00640    0.00241000
   1.05246e+06       4.00670    0.00201000
   1.14267e+06       4.00680    0.00173000
   1.24992e+06       4.00670    0.00159000
   1.37924e+06       4.00670    0.00143000
   1.53840e+06       4.00650    0.00134000
   1.73909e+06       4.00610    0.00110000
   2.00000e+06       4.00590    0.00111000
   2.35301e+06       4.00560    0.00150000
   2.85734e+06       4.00520    0.00204000
   3.63578e+06       4.00470    0.00289000
   4.99919e+06       4.00430    0.00477000
