;  Optical constants for hexagonal ZnS, ordinary ray
; 
;   taken from:
;
;   'Handbook of Optical Constants of Solids', Ed. by Edward D. Palik,
;   Academic Press, Inc., 1985.
;   
;    Lambda (A)            n            k
;-----------------------------------------
       1127.09      0.840000       1.02000
       1180.76      0.890000       1.13000
       1239.80      0.990000       1.21000
       1305.05       1.15000       1.34000
       1340.32       1.24000       1.33000
       1377.56       1.37000       1.26000
       1416.91       1.36000       1.18000
       1458.59       1.29000       1.18000
       1502.79       1.27000       1.26000
       1549.75       1.27000       1.34000
       1599.74       1.33000       1.45000
       1653.07       1.42000       1.54000
       1710.07       1.51000       1.66000
       1771.14       1.73000       1.75000
       1836.74       2.08000       1.50000
       1907.38       2.07000       1.34000
       1983.68       2.00000       1.33000
       2066.33       1.97000       1.50000
       2156.17       2.30000       1.65000
       2254.18       2.65000       1.37000
       2361.52       2.63000       1.05000
       2479.60       2.60000      0.910000
       2610.11       2.60000      0.840000
       2755.11       2.60000      0.740000
       2917.18       2.58000      0.670000
       3099.50       2.57000      0.720000
       3306.13       2.75000      0.450000
       3542.29       2.69000      0.300000
       3599.88       2.70500       0.00000
       3750.15       2.63700       0.00000
       3814.77       2.62000      0.240000
       3999.35       2.56000       0.00000
       4099.87       2.53900       0.00000
       4132.67       2.54000      0.180000
       4199.86       2.52200       0.00000
       4250.26       2.51100       0.00000
       4300.38       2.50200       0.00000
       4399.57       2.48600       0.00000
       4500.18       2.47300       0.00000
       4508.36       2.49000      0.150000
       4600.37       2.45900       0.00000
       4699.77       2.44800       0.00000
       4750.19       2.44500       0.00000
       4799.85       2.43800       0.00000
       4900.40       2.42800       0.00000
       4959.20       2.42000      0.100000
       4999.19       2.42100       0.00000
       5248.94       2.40200       0.00000
       5500.44       2.38600       0.00000
       5750.46       2.37500       0.00000
       6000.97       2.36300       0.00000
       6199.00       2.38000     0.0600000
       6248.99       2.35400       0.00000
       6501.31       2.34600       0.00000
       6749.05       2.33900       0.00000
       7000.56       2.33200       0.00000
       7998.71       2.32400       0.00000
       8997.10       2.31000       0.00000
       9998.39       2.30100       0.00000
       12001.9       2.29000       0.00000
       13999.5       2.28500       0.00000
       20000.0       2.27000       0.00000
       29997.6       2.26000       0.00000
       39993.5       2.25500       0.00000
       49991.9       2.25000       0.00000
       60009.7       2.24500       0.00000
       70005.6       2.24000       0.00000
       79987.1       2.23500       0.00000
       89971.0       2.23000       0.00000
       99983.9       2.22500       0.00000
       99983.9       2.32000       0.00000
       120019.       2.29000       0.00000
       139995.       2.24000       0.00000
       159995.       2.18000       0.00000
       179994.       2.11000       0.00000
       200000.       2.00000    0.00560000
       204082.       1.98000    0.00620000
       208335.       1.95000    0.00700000
       212768.       1.92000    0.00790000
       217394.       1.88000    0.00900000
       222226.       1.84000     0.0100000
       227278.       1.79000     0.0120000
       232564.       1.74000     0.0140000
       238103.       1.67000     0.0170000
       243911.       1.59000     0.0200000
       250010.       1.49000     0.0250000
       256422.       1.37000     0.0330000
       263171.       1.21000     0.0450000
       270286.      0.970000     0.0680000
       277795.      0.570000      0.150000
       285734.      0.150000      0.720000
       294140.      0.110000       1.30000
       302981.      0.110000       1.70000
       312450.      0.130000       2.20000
       322529.      0.170000       2.90000
       333280.      0.250000       3.70000
       335534.      0.270000       4.00000
       337820.      0.300000       4.20000
       340137.      0.340000       4.50000
       342486.      0.400000       4.80000
       344772.      0.460000       5.10000
       347186.      0.560000       5.60000
       349633.      0.690000       6.10000
       352116.      0.880000       6.70000
       354634.       1.19000       7.50000
       357085.       1.75000       8.60000
       359675.       2.88000       10.1000
       362303.       5.61000       11.8000
       364969.       10.9000       10.6000
       367675.       12.3000       5.40000
       370311.       10.7000       2.70000
       373097.       9.34000       1.60000
       375925.       8.36000       1.10000
       378796.       7.64000      0.780000
       381712.       7.09000      0.590000
       384553.       6.56000      0.470000
       399936.       5.38000      0.200000
       416599.       4.74000      0.110000
       434712.       4.35000     0.0740000
       454472.       4.09000     0.0520000
       476114.       3.90000     0.0380000
       499919.       3.75000     0.0300000
       526231.       3.64000     0.0240000
       555466.       3.55000     0.0190000
       588140.       3.47000     0.0160000
       624899.       3.41000     0.0130000
       666559.       3.36000     0.0110000
       714170.       3.32000    0.00940000
       769107.       3.28000    0.00800000
       833199.       3.25000    0.00690000
       908944.       3.22000    0.00590000
       999839.       3.20000    0.00510000
