;  Optical constants for hexagonal ZnS, extraordinary ray
; 
;   taken from:
;
;   'Handbook of Optical Constants of Solids', Ed. by Edward D. Palik,
;   Academic Press, Inc., 1985.
;   
;    Lambda (A)            n            k
;-----------------------------------------
       1239.80       1.08000       1.50000
       1305.05       1.30000       1.61000
       1340.32       1.48000       1.54000
       1377.56       1.62000       1.44000
       1416.91       1.62000       1.33000
       1458.59       1.53000       1.33000
       1502.79       1.50000       1.39000
       1549.75       1.52000       1.46000
       1599.74       1.55000       1.57000
       1653.07       1.69000       1.72000
       1710.07       1.83000       1.79000
       1771.14       2.10000       1.81000
       1836.74       2.34000       1.49000
       1907.38       2.30000       1.35000
       1983.68       2.23000       1.36000
       2066.33       2.28000       1.54000
       2156.17       2.85000       1.66000
       2254.18       3.01000       1.20000
       2361.52       2.94000      0.910000
       2479.60       2.88000      0.760000
       2610.11       2.81000      0.670000
       2755.11       2.80000      0.590000
       2917.18       2.77000      0.530000
       3099.50       2.76000      0.580000
       3306.13       2.97000      0.270000
       3542.29       2.80000     0.0250000
       3599.88       2.70900       0.00000
       3750.15       2.64000       0.00000
       3814.77       2.64000     0.0100000
       3999.35       2.56400       0.00000
       4099.87       2.54400       0.00000
       4132.67       2.54000       0.00000
       4199.86       2.52500       0.00000
       4250.26       2.51400       0.00000
       4300.38       2.50500       0.00000
       4399.57       2.48800       0.00000
       4500.18       2.47700       0.00000
       4508.36       2.49000       0.00000
       4600.37       2.46300       0.00000
       4699.77       2.45300       0.00000
       4750.19       2.44900       0.00000
       4799.85       2.44300       0.00000
       4900.40       2.43300       0.00000
       4959.20       2.42000       0.00000
       4999.19       2.42500       0.00000
       5248.94       2.40700       0.00000
       5500.44       2.39200       0.00000
       5750.46       2.37800       0.00000
       6000.97       2.36800       0.00000
       6199.00       2.36000       0.00000
       6248.99       2.35800       0.00000
       6501.31       2.35000       0.00000
       6749.05       2.34300       0.00000
       7000.56       2.33700       0.00000
       7998.71       2.32800       0.00000
       8997.10       2.31500       0.00000
       9998.39       2.30300       0.00000
       12001.9       2.29400       0.00000
       13999.5       2.28800       0.00000
