;  Optical constants for Hf, single crystal w/ E || c
; 
;   taken from:
;
;   Lynch et al., in  
;
;   J. H. Weaver, C. Krafka, D. W. Lynch, and E. E. Koch, 'Physik Daten,
;   Physics Data: Optical Properties of Metals', Vol. 18-1 and 18-2,
;   Fach-information zentrum, Karlsruhe, 1981.
;   
;    Lambda (A)            n            k
;-----------------------------------------
   499.92    1.11	.31
   503.98    1.10	.31
   508.11    1.10	.30
   512.31    1.10	.30
   516.58    1.09	.30
   520.92    1.09	.30
   525.34    1.09	.29
   529.83    1.08	.29
   534.40    1.07	.29
   539.04    1.07	.28
   543.77    1.06	.28
   548.58    1.06	.28
   553.48    1.05	.28
   558.47    1.04	.28
   563.55    1.03	.28
   568.72    1.02	.28
   573.98    1.01	.28
   579.35    1.01	.28
   584.81    1.00	.29
   590.38    .99	.29
   596.06    .98	.29
   601.84    .97	.30
   607.75    .96	.30
   613.76    .95	.30
   619.90    .94	.31
   626.16    .94	.31
   632.55    .93	.32
   639.07    .92	.32
   645.73    .90	.33
   652.53    .89	.33
   659.47    .87	.34
   666.56    .85	.36
   673.80    .84	.38
   681.21    .82	.39
   688.78    .81	.42
   692.63    .81	.43
   696.52    .80	.44
   700.45    .80	.45
   704.43    .80	.46
   708.46    .80	.47
   712.53    .80	.48
   716.65    .80	.49
   720.81    .79	.50
   725.03    .79	.51 
   729.29    .79	.53
   733.61    .79	.54
   737.98    .79	.55
   742.40    .79	.57
   746.87    .80	.58
   751.39    .80	.59
   755.98    .81	.60
   760.61    .82	.61
   765.31    .83	.61
   770.06    .83	.61
   774.88    .83	.60
   779.75    .82	.60
   784.68    .81	.61
   789.68    .79	.62
   794.74    .79	.64
   799.87    .78	.65 
   805.06    .78	.67
   810.33    .78	.69
   815.66    .79	.70
   821.06    .79	.72
   826.53    .79	.73
   832.08    .80	.75
   837.70    .81	.76
   843.40    .81	.77
   849.18    .82	.78
   855.03    .83	.79
   860.97    .83	.80
   866.99    .84	.80
   873.10    .83	.81
   879.29    .83	.82
   885.57    .83	.83
   891.94    .83	.85
   898.41    .83	.87
   904.96    .84	.88
   911.62    .84	.90
   918.37    .85	.92
   925.22    .86	.93
   932.18    .87	.95
   939.24    .88	.96
   946.41    .89	.98
   953.69    .90	.99
   961.09    .91	1.00
   968.59    .92	1.01
   976.22    .93	1.02
   983.97    .94	1.04
   991.84    .95	1.05
   999.84    .96	1.06
   1008.0    .98	1.07
   1016.2    .99	1.08
   1024.6    1.00	1.09
   1033.2    1.02	1.10
   1041.8    1.03	1.11
   1050.7    1.04	1.12
   1059.7    1.06	1.13
   1068.8    1.07	1.14
   1078.1    1.09	1.15
   1087.5    1.10	1.16
   1097.2    1.12	1.16
   1107.0    1.13	1.17
   1116.9    1.15	1.18
   1127.1    1.16	1.19
   1137.4    1.18	1.19
   1148.0    1.20	1.20
   1158.7    1.22	1.21
   1169.6    1.24	1.21
   1180.8    1.25	1.22
   1192.1    1.28	1.22
   1203.7    1.30	1.22
   1215.5    1.33	1.22
   1227.5    1.34	1.22
   1239.8    1.36	1.22
   1252.3    1.38	1.22
   1265.1    1.41	1.21
   1278.1    1.43	1.20
   1291.5    1.46	1.18
   1305.1    1.47	1.16
