;  Optical constants for Hf, single crystal w/ E perp. c
; 
;   taken from:
;
;   Lynch et al., in  
;
;   J. H. Weaver, C. Krafka, D. W. Lynch, and E. E. Koch, 'Physik Daten,
;   Physics Data: Optical Properties of Metals', Vol. 18-1 and 18-2,
;   Fach-information zentrum, Karlsruhe, 1981.
;   
;    Lambda (A)            n            k
;-----------------------------------------
   499.92    1.09	.3
   503.98    1.09	.3
   508.11    1.08	.29
   512.31    1.08	.29
   516.58    1.07	.29
   520.92    1.07	.29
   525.34    1.06	.28
   529.83    1.06	.28
   534.40    1.05	.28
   539.04    1.05	.28
   543.77    1.04	.28
   548.58    1.03	.27
   553.48    1.03	.27
   558.47    1.02	.28
   563.55    1.01	.28
   568.72    1.00	.28
   573.98    1.00	.28
   579.35    .99	.28
   584.81    .98 	.28
   590.38    .97	.29
   596.06    .97	.29
   601.84    .96	.29
   607.75    .95	.29
   613.76    .94	.30
   619.90    .93	.30 
   626.16    .92	.30
   632.55    .91	.31
   639.07    .90	.31
   645.73    .89	.32
   652.53    .88	.32
   659.47    .86	.33
   666.56    .84	.34
   673.80    .82	.36
   681.21    .81	.37
   688.78    .80	.39
   692.63    .79	.41
   696.52    .79	.42
   700.45    .79	.43
   704.43    .79	.44
   708.46    .78	.45
   712.53    .78	.46
   716.65    .78	.47
   720.81    .77	.48
   725.03    .77	.49
   729.29    .77	.50
   733.61    .77	.52
   737.98    .77	.53
   742.40    .77	.54
   746.87    .77	.55
   751.39    .78	.56
   755.98    .78	.57
   760.61    .79	.58
   765.31    .80	.59
   770.06    .81	.59
   774.88    .81	.58
   779.75    .80	.57
   784.68    .78	.58
   789.68    .77	.59
   794.74    .76	.61
   799.87    .76	.63
   805.06    .76	.65
   810.33    .76	.66
   815.66    .76	.68
   821.06    .76	.69
   826.53    .77	.70
   832.08    .77	.72
   837.70    .77	.73
   843.40    .78	.74
   849.18    .79	.75
   855.03    .79	.76
   860.97    .80	.77
   866.99    .80	.77
   873.10    .79	.78
   879.29    .79	.79
   885.57    .79	.81
   891.94    .79	.83
   898.41    .79	.84
   904.96    .80	.86
   911.62    .80	.88
   918.37    .81	.89
   925.22    .82	.91
   932.18    .82	.92
   939.24    .83	.94
   946.41    .85	.95
   953.69    .86	.97
   961.09    .87	.98
   968.59    .88	.99
   976.22    .89	1.00
   983.97    .90	1.02
   991.84    .91	1.03
   999.84    .92	1.04
   1008.0    .93	1.05
   1016.2    .94	1.06
   1024.6    .96	1.07
   1033.2    .97	1.08
   1041.8    .98	1.09
   1050.7    .98	1.09
   1059.7    1.00	1.10
   1068.8    1.01	1.11
   1078.1    1.03	1.12
   1087.5    1.04	1.13
   1097.2    1.05	1.14
   1107.0    1.07	1.15
   1116.9    1.08	1.16
   1127.1    1.10	1.16
   1137.4    1.12	1.17
   1148.0    1.13	1.18
   1158.7    1.15	1.19
   1169.6    1.17	1.19
   1180.8    1.19	1.20
   1192.1    1.21	1.20
   1203.7    1.23	1.20
   1215.5    1.25	1.21
   1227.5    1.27	1.21
   1239.8    1.29	1.21
   1252.3    1.32	1.21
   1265.1    1.34	1.20
   1278.1    1.37	1.19
   1291.5    1.39	1.17
   1305.1    1.40	1.16
