;  Optical constants for Hg
; 
;   taken from:
;
;   'Handbook of Optical Constants of Solids II', Ed. by Edward D. Palik,
;   Academic Press, Inc., 1991.
;   
;    Lambda (A)            n            k
;-----------------------------------------
       635.795       1.20800      0.364000
       652.526       1.20000      0.366000
       670.162       1.19500      0.367000
       688.778       1.19100      0.367000
       708.457       1.18400      0.366000
       729.294       1.17700      0.367000
       751.394       1.17000      0.367000
       774.875       1.15900      0.368000
       799.871       1.14600      0.374000
       826.533       1.13500      0.383000
       855.034       1.12500      0.394000
       885.571       1.11500      0.404000
       918.370       1.10400      0.416000
       953.692       1.09200      0.430000
       991.840       1.07800      0.445000
       1033.17       1.06400      0.467000
       1078.09       1.05000      0.491000
       1127.09       1.03900      0.523000
       1147.96       1.03900      0.537000
       1169.62       1.04100      0.550000
       1192.12       1.04500      0.561000
       1215.49       1.05400      0.569000
       1239.80       1.06200      0.567000
       1265.10       1.06100      0.557000
       1291.46       1.04400      0.541000
       1318.94       1.00900      0.548000
       1347.61      0.988000      0.568000
       1377.56      0.975000      0.588000
       1408.86      0.965000      0.607000
       1441.63      0.956000      0.624000
       1475.95      0.953000      0.638000
       1511.95      0.952000      0.645000
       1549.75      0.946000      0.639000
       1589.49      0.929000      0.623000
       1631.32      0.893000      0.597000
       1653.07      0.860000      0.580000
       1675.41      0.817000      0.574000
       1698.36      0.769000      0.575000
       1721.94      0.717000      0.584000
       1746.20      0.663000      0.589000
       1771.14      0.585000      0.617000
       1796.81      0.510000      0.676000
       1823.24      0.459000      0.756000
       1850.45      0.438000      0.836000
       1878.48      0.436000      0.898000
       1907.38      0.428000      0.949000
       1937.19      0.412000       1.00200
       1967.94      0.399000       1.05800
       1999.68      0.390000       1.11800
       2032.46      0.388000       1.17600
       2066.33      0.386000       1.23200
       2101.36      0.385000       1.28700
       2137.59      0.386000       1.34100
       2175.09      0.386000       1.39600
       2213.93      0.386000       1.45400
       2254.18      0.390000       1.51200
       2295.93      0.394000       1.56900
       2384.23      0.401000       1.68700
       2479.60      0.414000       1.80600
       2582.92      0.431000       1.92900
       2695.22      0.452000       2.05800
       2817.73      0.477000       2.19500
       2951.90      0.507000       2.34100
       3099.50      0.542000       2.50200
       3262.63      0.589000       2.66500
       3443.89      0.644000       2.86000
       3646.47      0.713000       3.07400
       3874.38      0.798000       3.29400
       4132.67      0.898000       3.53800
       4427.86       1.02700       3.80200
       4768.46       1.18600       4.09000
       5165.83       1.38400       4.40700
       5635.45       1.62000       4.75100
       6199.00       1.91000       5.15000
       6887.78       2.28400       5.58200
       7748.75       2.74600       6.05400
       8855.71       3.32400       6.55800
       10331.7       4.05000       7.08200
       12398.0       4.96200       7.64300
       15497.5       6.08600       8.31200
       20663.3       7.57400       9.19500
       24796.0       8.52800       9.80500
       30995.0       9.74100       10.6500
       41326.7       11.3700       11.9500
       61990.0       13.9900       14.2700
