;  Optical constants for HgTe
; 
;   taken from:
;
;   'Handbook of Optical Constants of Solids II', Ed. by Edward D. Palik,
;   Academic Press, Inc., 1991.
;   
;    Lambda (A)            n            k
;-----------------------------------------
       2066.33       1.43500       1.74700
       2072.55       1.43700       1.70400
       2078.81       1.43300       1.71700
       2085.10       1.43500       1.71600
       2091.43       1.43400       1.70600
       2097.80       1.43700       1.70800
       2104.21       1.44000       1.70900
       2111.02       1.42600       1.70900
       2117.51       1.42700       1.71300
       2124.04       1.43100       1.71200
       2130.61       1.42600       1.71000
       2137.22       1.42400       1.71300
       2143.87       1.41600       1.72100
       2150.56       1.41500       1.72400
       2157.30       1.42100       1.73000
       2164.08       1.41600       1.73400
       2170.90       1.41600       1.74000
       2177.76       1.41100       1.74900
       2184.67       1.41300       1.75600
       2191.62       1.41000       1.76500
       2198.62       1.40900       1.77200
       2206.05       1.41200       1.77900
       2213.14       1.41300       1.78800
       2220.27       1.41400       1.79900
       2227.45       1.41500       1.80800
       2234.68       1.41700       1.82000
       2241.95       1.42000       1.82900
       2249.27       1.42400       1.83900
       2256.64       1.42600       1.84900
       2264.06       1.43100       1.86000
       2271.53       1.43400       1.87100
       2279.04       1.44100       1.88200
       2286.61       1.44500       1.89200
       2294.23       1.45300       1.90400
       2301.89       1.45900       1.91600
       2310.04       1.46700       1.92800
       2317.82       1.47500       1.93900
       2325.64       1.48300       1.94900
       2333.52       1.49300       1.96000
       2341.45       1.50200       1.97200
       2349.44       1.51300       1.98100
       2357.48       1.52400       1.99200
       2365.58       1.53400       2.00100
       2373.73       1.54400       2.01100
       2381.94       1.55500       2.01900
       2390.21       1.56600       2.02900
       2398.53       1.57700       2.03700
       2406.91       1.58700       2.04700
       2415.35       1.59800       2.05700
       2424.33       1.61000       2.06700
       2432.89       1.62200       2.07900
       2441.51       1.63500       2.08900
       2450.20       1.64900       2.10100
       2458.95       1.66400       2.11200
       2467.75       1.68000       2.12300
       2476.63       1.69700       2.13400
       2485.57       1.71500       2.14500
       2494.57       1.73400       2.15400
       2503.63       1.75400       2.16200
       2512.77       1.77400       2.17100
       2521.97       1.79500       2.17700
       2531.24       1.81700       2.18400
       2540.57       1.83800       2.18800
       2550.50       1.86000       2.19300
       2559.98       1.88200       2.19600
       2569.53       1.90400       2.19900
       2579.16       1.92600       2.20100
       2588.85       1.94900       2.20300
       2598.62       1.97100       2.20400
       2608.46       1.99400       2.20300
       2618.37       2.01700       2.20200
       2628.37       2.04100       2.20100
       2638.43       2.06500       2.19800
       2648.58       2.08800       2.19400
       2658.80       2.11100       2.18900
       2669.11       2.13500       2.18300
       2679.49       2.15800       2.17700
       2690.54       2.18000       2.16900
       2701.09       2.20300       2.16100
       2711.72       2.22500       2.15100
       2722.44       2.24600       2.14100
       2733.25       2.26700       2.13000
       2744.13       2.28700       2.11700
       2755.11       2.30700       2.10400
       2766.18       2.32500       2.08900
       2777.33       2.34300       2.07500
       2788.57       2.36000       2.05900
       2799.91       2.37500       2.04300
       2811.34       2.38800       2.02600
       2822.86       2.40100       2.00900
       2835.12       2.41300       1.99200
       2846.84       2.42300       1.97500
       2858.66       2.43300       1.95900
       2870.57       2.44100       1.94200
       2882.59       2.44900       1.92600
       2894.70       2.45600       1.91000
       2906.92       2.46200       1.89400
       2919.24       2.46700       1.87900
       2931.66       2.47200       1.86400
       2944.19       2.47500       1.84800
       2956.83       2.47800       1.83400
       2969.58       2.47900       1.82000
       2982.44       2.48100       1.80700
       2995.41       2.48100       1.79400
       3009.22       2.48100       1.78200
       3022.43       2.48000       1.77100
       3035.75       2.47900       1.76100
       3049.19       2.47800       1.75200
       3062.75       2.47600       1.74400
       3076.43       2.47500       1.73600
       3090.23       2.47400       1.72900
       3104.16       2.47300       1.72200
       3118.21       2.47100       1.71600
       3132.39       2.47000       1.71100
       3146.70       2.47000       1.70600
       3161.14       2.46900       1.70100
       3175.72       2.46800       1.69700
       3190.43       2.46800       1.69300
       3206.10       2.46700       1.69000
       3221.10       2.46700       1.68700
       3236.23       2.46700       1.68400
       3251.51       2.46700       1.68100
       3266.93       2.46700       1.67900
       3282.50       2.46600       1.67700
       3298.22       2.46700       1.67500
       3314.09       2.46700       1.67400
       3330.11       2.46700       1.67300
       3346.29       2.46700       1.67200
       3362.63       2.46800       1.67200
       3379.12       2.46900       1.67100
       3395.78       2.47000       1.67100
       3412.61       2.47000       1.67100
       3430.55       2.47200       1.67200
       3447.72       2.47300       1.67300
       3465.06       2.47400       1.67400
       3482.58       2.47600       1.67500
       3500.28       2.47800       1.67700
       3518.16       2.48000       1.67900
       3536.22       2.48100       1.68100
       3554.47       2.48400       1.68300
       3572.91       2.48700       1.68600
       3591.54       2.48900       1.68900
       3610.37       2.49200       1.69200
       3629.39       2.49500       1.69600
       3648.62       2.49900       1.69900
       3668.05       2.50200       1.70300
       3688.78       2.50600       1.70700
       3708.65       2.51000       1.71200
       3728.72       2.51500       1.71600
       3749.02       2.52000       1.72200
       3769.53       2.52500       1.72700
       3790.28       2.53000       1.73200
       3811.25       2.53600       1.73800
       3832.46       2.54200       1.74300
       3853.90       2.54800       1.75000
       3875.59       2.55500       1.75600
       3897.52       2.56300       1.76300
       3919.70       2.57000       1.77000
       3942.13       2.57800       1.77700
       3964.82       2.58700       1.78400
       3989.06       2.59600       1.79200
       4012.30       2.60600       1.80000
       4035.81       2.61600       1.80800
       4059.59       2.62700       1.81600
       4083.66       2.63900       1.82500
       4108.02       2.65100       1.83400
       4132.67       2.66400       1.84400
       4157.61       2.67800       1.85300
       4182.86       2.69400       1.86300
       4208.42       2.71000       1.87300
       4234.29       2.72700       1.88300
       4260.48       2.74600       1.89300
       4287.00       2.76800       1.90400
       4315.35       2.79000       1.91400
       4342.56       2.81600       1.92400
       4370.11       2.84400       1.93300
       4398.01       2.87400       1.94000
       4426.28       2.90800       1.94500
       4454.90       2.94500       1.94600
       4483.91       2.98300       1.94200
       4513.29       3.02000       1.93200
       4543.06       3.05600       1.91700
       4573.22       3.08800       1.89800
       4603.79       3.11500       1.87700
       4634.77       3.13800       1.85600
       4666.16       3.15900       1.83300
       4697.99       3.17500       1.81200
       4732.06       3.19000       1.79100
       4764.80       3.20300       1.77100
       4797.99       3.21400       1.75300
       4831.64       3.22300       1.73600
       4865.78       3.23100       1.72100
       4900.40       3.23900       1.70700
       4935.51       3.24500       1.69500
       4971.13       3.25200       1.68300
       5007.27       3.25900       1.67400
       5043.94       3.26500       1.66500
       5081.15       3.27200       1.65800
       5118.91       3.27900       1.65300
       5157.24       3.28700       1.64700
       5196.14       3.29400       1.64400
       5237.85       3.30300       1.64100
       5277.99       3.31300       1.64100
       5318.75       3.32400       1.64000
       5360.14       3.33500       1.64200
       5402.18       3.34900       1.64500
       5444.88       3.36400       1.64900
       5488.27       3.38200       1.65300
       5532.35       3.40200       1.66000
       5577.15       3.42500       1.66800
       5622.68       3.45400       1.67700
       5668.95       3.48800       1.68700
       5716.00       3.53200       1.69600
       5763.83       3.58600       1.70000
       5812.47       3.65000       1.69400
       5864.71       3.71900       1.67000
       5915.08       3.78500       1.62600
       5966.31       3.83800       1.56900
       6018.45       3.87600       1.50700
       6071.50       3.90100       1.44300
       6125.49       3.91700       1.38200
       6180.46       3.92500       1.32500
       6236.42       3.92900       1.27200
       6293.40       3.92900       1.22200
       6351.43       3.92400       1.17600
       6410.55       3.91900       1.13400
       6470.77       3.91100       1.09400
       6532.14       3.90300       1.05800
       6594.68       3.89200       1.02400
       6662.01       3.88200      0.992300
       6727.08       3.87000      0.964200
       6793.42       3.86000      0.935800
       6861.10       3.84800      0.910700
       6930.13       3.83700      0.886300
       7000.56       3.82600      0.863300
       7072.45       3.81500      0.841900
       7145.82       3.80500      0.822600
       7220.73       3.79500      0.802400
       7297.23       3.78600      0.782800
       7375.37       3.77600      0.764400
       7455.20       3.76700      0.747400
       7536.78       3.75600      0.735100
       7620.16       3.74700      0.722500
       7710.20       3.73800      0.709700
       7797.48       3.72900      0.695700
       7886.77       3.71900      0.686400
       7978.12       3.71100      0.671600
       8071.61       3.70200      0.660000
       8167.33       3.69100      0.655200
       8265.33       3.68500      0.638200
