;  Optical constants for InAs
; 
;   taken from:
;
;   'Handbook of Optical Constants of Solids', Ed. by Edward D. Palik,
;   Academic Press, Inc., 1985.
;   
;    Lambda (A)            n            k
;-----------------------------------------
       495.920       1.13900      0.168000
       516.583       1.13500      0.195000
       539.043       1.13500      0.207000
       563.545       1.13300      0.215000
       590.381       1.13100      0.222000
       619.900       1.12500      0.225000
       635.795       1.12000      0.224000
       670.162       1.11000      0.215000
       708.457       1.04700      0.189000
       774.875      0.948000      0.272000
       826.533      0.894000      0.336000
       885.571      0.829000      0.426000
       953.692      0.766000      0.563000
       1033.17      0.745000      0.727000
       1078.09      0.751000      0.830000
       1127.09      0.775000      0.905000
       1239.80      0.835000       1.07100
       1362.42      0.890000       1.26000
       1530.62      0.967000       1.55200
       1721.94       1.18400       1.88900
       1796.81       1.33200       1.99800
       1878.48       1.48300       2.02000
       1952.44       1.58300       2.12000
       2066.33       1.43400       2.11200
       2087.21       1.40100       2.08500
       2101.36       1.38300       2.08400
       2122.95       1.35000       2.08900
       2137.59       1.33300       2.10200
       2159.93       1.30600       2.13500
       2175.09       1.29300       2.16300
       2198.23       1.28100       2.21200
       2213.93       1.27600       2.24800
       2237.91       1.27700       2.30400
       2254.18       1.28200       2.34400
       2254.18       1.76500       2.20200
       2279.04       1.29700       2.40700
       2295.93       1.31200       2.44900
       2321.72       1.34100       2.51400
       2339.25       1.36600       2.55500
       2366.03       1.40800       2.61200
       2384.23       1.43600       2.64600
       2412.06       1.46900       2.69400
       2430.98       1.48400       2.73200
       2459.92       1.50500       2.80700
       2479.60       1.52400       2.87100
       2489.56       1.53500       2.90700
       2499.60       1.55000       2.94600
       2509.72       1.56600       2.98800
       2519.92       1.58600       3.03400
       2530.20       1.60800       3.08100
       2540.57       1.63500       3.12900
       2551.03       1.66800       3.18200
       2561.57       1.70500       3.23600
       2572.20       1.75100       3.29100
       2582.92       1.80300       3.34800
       2593.72       1.86600       3.40400
       2604.62       1.93800       3.45600
       2615.61       2.01900       3.50400
       2626.70       2.10800       3.54500
       2637.87       2.20400       3.57500
       2649.15       2.30500       3.59500
       2660.52       2.40700       3.60400
       2671.98       2.51000       3.60400
       2683.55       2.60900       3.59600
       2695.22       2.70500       3.58100
       2706.99       2.79900       3.56400
       2718.86       2.89400       3.54300
       2730.84       2.99000       3.51900
       2742.92       3.09100       3.48700
       2755.11       3.19400       3.44500
       2767.41       3.29800       3.38900
       2779.82       3.39900       3.32000
       2792.34       3.49000       3.23900
       2804.98       3.57300       3.14600
       2817.73       3.64400       3.04200
       2830.59       3.70100       2.93100
       2843.58       3.74200       2.81400
       2856.68       3.76500       2.69700
       2869.91       3.77000       2.58400
       2883.26       3.76100       2.47800
       2896.73       3.74200       2.38200
       2910.33       3.71500       2.29700
       2924.06       3.68400       2.22200
       2937.91       3.65000       2.15600
       2951.90       3.61500       2.09900
       2966.03       3.58000       2.04900
       2980.29       3.54500       2.00500
       2994.69       3.51200       1.96700
       3009.22       3.48000       1.93300
       3023.90       3.44900       1.90300
       3038.73       3.41900       1.87700
       3053.69       3.39100       1.85400
       3068.81       3.36400       1.83300
       3084.08       3.33800       1.81500
       3099.50       3.31300       1.79900
       3146.70       3.24600       1.76100
       3178.97       3.20800       1.74300
       3228.65       3.15800       1.72600
       3262.63       3.12900       1.71900
       3314.97       3.09100       1.71400
       3350.81       3.06900       1.71500
       3406.04       3.04400       1.72100
       3443.89       3.03000       1.72800
       3502.26       3.01500       1.74200
       3542.29       3.00800       1.75400
       3604.07       3.00300       1.77400
       3646.47       3.00400       1.79000
       3711.98       3.01000       1.81700
       3756.97       3.01800       1.83600
       3826.54       3.03500       1.86800
       3874.38       3.05100       1.89100
       3948.41       3.08300       1.92900
       3999.35       3.10800       1.95700
       4078.29       3.15700       2.00100
       4132.67       3.19700       2.03400
       4160.40       3.22000       2.05100
       4188.51       3.24400       2.06900
       4217.01       3.27200       2.08800
       4245.89       3.30200       2.10800
       4275.17       3.33700       2.12900
       4304.86       3.37700       2.15100
       4334.97       3.42500       2.17400
       4365.49       3.48200       2.19400
       4396.45       3.55000       2.20700
       4427.86       3.62600       2.20800
       4459.71       3.70500       2.18900
       4492.03       3.77600       2.15300
       4524.82       3.83400       2.10800
       4558.09       3.87800       2.06000
       4591.85       3.91100       2.01600
       4626.12       3.93500       1.97700
       4660.90       3.95600       1.94300
       4696.21       3.97600       1.91700
       4732.06       3.99600       1.89800
       4768.46       4.02100       1.88500
       4805.43       4.05200       1.88100
       4842.97       4.09800       1.88200
       4881.10       4.16800       1.87900
       4919.84       4.26500       1.85500
       4959.20       4.36400       1.78600
       4999.19       4.43700       1.68600
       5039.84       4.47600       1.57500
       5081.15       4.48900       1.46600
       5123.14       4.48400       1.36800
       5165.83       4.46600       1.28300
       5209.24       4.44300       1.20900
       5253.39       4.41700       1.14400
       5298.29       4.38900       1.08600
       5343.97       4.36000       1.03500
       5390.44       4.33100      0.991000
       5437.72       4.30300      0.951000
       5485.84       4.27600      0.914000
       5534.82       4.24900      0.880000
       5584.68       4.22400      0.850000
       5635.45       4.19900      0.822000
       5687.16       4.17600      0.794000
       5739.81       4.15300      0.771000
       5793.46       4.13100      0.750000
       5848.11       4.10900      0.730000
       5903.81       4.08800      0.712000
       5960.58       4.06800      0.694000
       6018.45       4.05000      0.677000
       6077.45       4.03100      0.661000
       6137.62       4.01200      0.648000
       6199.00       3.99500      0.634000
       6261.62       3.97900      0.619000
       6325.51       3.96200      0.606000
       6390.72       3.94700      0.594000
       6457.29       3.93200      0.582000
       6525.26       3.91700      0.572000
       6594.68       3.90200      0.564000
       6665.59       3.88900      0.554000
       6738.04       3.87500      0.547000
       6812.09       3.86200      0.539000
       6887.78       3.85100      0.530000
       6965.17       3.83900      0.523000
       7044.32       3.82800      0.515000
       7125.29       3.81700      0.508000
       7208.14       3.80700      0.500000
       7292.94       3.79800      0.493000
       7379.76       3.78800      0.486000
       7468.67       3.78000      0.478000
       7559.76       3.77000      0.475000
       7653.09       3.76100      0.473000
       7748.75       3.75500      0.463000
       7846.84       3.74600      0.457000
       7947.44       3.73500      0.458000
       8050.65       3.72900      0.448000
       8156.58       3.72000      0.444000
       8265.33       3.71400      0.432000
       8855.71       3.69600       0.00000
       10331.7       3.61300       0.00000
       12398.0       3.54800       0.00000
       13775.6       3.51600       0.00000
       35422.9       3.60800    0.00958000
       36464.7       3.55600    0.00229000
       37569.7       3.53000   0.000508000
       38743.8       3.51200   0.000123000
       39993.5       3.49900       0.00000
       41326.7       3.48800       0.00000
       42751.7       3.47800       0.00000
       44278.6       3.47000       0.00000
       45918.5       3.46300       0.00000
       47684.6       3.45700       0.00000
       49592.0       3.45100       0.00000
       51658.3       3.44500       0.00000
       53904.3       3.44100       0.00000
       56354.5       3.43600       0.00000
       59038.1       3.43200       0.00000
       61990.0       3.42700       0.00000
       65252.6       3.42300       0.00000
       68877.8       3.42000       0.00000
       72929.4       3.41600       0.00000
       77487.5       3.41200       0.00000
       82653.3       3.40800       0.00000
       88557.1       3.40400       0.00000
       95369.2       3.40000       0.00000
       99983.9       3.40200       0.00000
       103317.       3.39400       0.00000
       111093.       3.39800       0.00000
       112709.       3.38800       0.00000
       123980.       3.38100       0.00000
       124992.       3.39100       0.00000
       137756.       3.37200       0.00000
       142851.       3.38100       0.00000
       154975.       3.35800       0.00000
       166662.       3.36500       0.00000
       177114.       3.33800       0.00000
       200000.       3.33400       0.00000
       206633.       3.30400       0.00000
       243911.       3.27500    0.00388000
       247960.       3.23700       0.00000
       250010.       3.26400       0.00000
       285734.       3.18200    0.00546000
       333280.       2.98800       0.00000
       344772.       2.91200    0.00494000
       344772.       3.18000     0.0400000
       350821.       3.10000     0.0600000
       357085.       2.80800     0.0131000
       357085.       3.00000      0.170000
       363578.       2.93000      0.270000
       370311.       2.65800     0.0545000
       370311.       2.92000      0.390000
       377298.       2.92000      0.400000
       384553.       2.41800     0.0474000
       384553.       2.73000      0.400000
       387559.       2.35200     0.0710000
       390611.       2.27700     0.0810000
       392094.       2.37000      0.500000
       393712.       2.19000     0.0940000
       396863.       2.08900      0.110000
       399936.       1.97000     0.0637000
       399936.       2.03000      0.830000
       403187.       1.82700      0.160000
       403187.       1.88000      0.970000
       406492.       1.60000       1.10000
       406492.       1.64900      0.210000
       409851.       1.42400      0.280000
       409851.       1.24000       1.44000
       413267.      0.980000       2.02000
       413267.       1.12800      0.410000
       416599.      0.779000      0.710000
       416599.      0.920000       2.77000
       420129.       1.08000       3.50000
       420129.      0.563000       1.19000
       423718.      0.493000       1.67000
       423718.       1.27000       4.20000
       427370.       2.08000       4.87000
       427370.      0.485000       2.14000
       431085.      0.514000       2.62000
       431085.       2.79000       5.17000
       434712.       3.30000       5.36000
       434712.      0.578000       3.15000
       438557.      0.690000       3.76000
       438557.       3.85000       5.60000
       442470.       4.35000       5.83000
       442470.      0.882000       4.50000
       446453.       1.24000       5.45000
       446453.       4.90000       6.12000
       448391.       5.90000       6.53000
       448391.       1.99000       6.76000
       454472.       3.99000       8.44000
       454472.       7.50000       6.40000
       458676.       8.89000       5.05000
       458676.       8.58000       7.87000
       462957.       9.16000       3.53000
       462957.       9.24000       3.50000
       467320.       9.13000       2.40000
       467320.       8.32000       1.63000
       471766.       7.33000      0.920000
       471766.       9.13000       1.53000
       476114.       8.32000       1.04000
       476114.       6.67000      0.600000
       487726.       5.72000      0.270000
       487726.       7.48000      0.480000
       499919.       6.91000      0.300000
       499919.       5.22000      0.160000
       512738.       6.42000     0.0800000
       526231.       6.14000     0.0600000
       540453.       5.97000     0.0600000
       555466.       5.64000      0.170000
       555466.       4.41000     0.0420000
       571336.       5.58000      0.200000
       588140.       5.41000      0.320000
       605963.       5.31000      0.400000
       624899.       5.27000      0.410000
       624899.       4.13000     0.0190000
       645057.       5.30000      0.510000
       666559.       5.27000      0.510000
       689544.       5.26000      0.600000
       714170.       5.30000      0.710000
       714170.       3.99000     0.0110000
       833199.       3.91000    0.00660000
       999839.       3.85000    0.00430000
   1.24992e+06       3.81700       0.00000
   1.66662e+06       3.79300       0.00000
   2.50010e+06       3.77800       0.00000
   4.99919e+06       3.76900       0.00000
   9.99839e+06       3.76600       0.00000
