;  Optical constants for polycrystalline K
; 
;   taken from:
;
;   'Handbook of Optical Constants of Solids II', Ed. by Edward D. Palik,
;   Academic Press, Inc., 1991.
;   
;    Lambda (A)            n            k
;-----------------------------------------
       1.23980      0.999998   7.02000e-08
       1.29836      0.999998   8.10000e-08
       1.35988      0.999998   9.63000e-08
       1.42408      0.999998   1.15000e-07
       1.49140      0.999997   1.38000e-07
       1.56205      0.999997   1.65000e-07
       1.63584      0.999997   1.97000e-07
       1.71314      0.999997   2.34000e-07
       1.79421      0.999996   2.78000e-07
       1.87905      0.999996   3.30000e-07
       1.96794      0.999996   3.92000e-07
       2.06118      0.999995   4.66000e-07
       2.15843      0.999995   5.53000e-07
       2.26076      0.999994   6.57000e-07
       2.36739      0.999994   7.80000e-07
       2.47960      0.999993   9.25000e-07
       2.59644      0.999992   1.10000e-06
       2.71946      0.999992   1.30000e-06
       2.84815      0.999991   1.55000e-06
       2.98244      0.999991   1.83000e-06
       3.12371      0.999990   2.18000e-06
       3.27124      0.999990   2.58000e-06
       3.34810      0.999990   2.81000e-06
       3.42581      0.999991   3.06000e-06
       3.50622      0.999989   3.50000e-07
       3.58842      0.999988   3.81000e-07
       3.75811      0.999986   4.52000e-07
       3.93587      0.999984   5.35000e-07
       4.12168      0.999983   6.34000e-07
       4.31685      0.999981   7.54000e-07
       4.52152      0.999979   8.96000e-07
       4.73387      0.999977   1.07000e-06
       4.95920      0.999974   1.27000e-06
       5.19397      0.999971   1.51000e-06
       5.43772      0.999969   1.79000e-06
       5.69499      0.999965   2.12000e-06
       5.96631      0.999962   2.52000e-06
       6.24584      0.999958   2.99000e-06
       6.54248      0.999954   3.55000e-06
       6.85351      0.999949   4.21000e-06
       7.17477      0.999944   5.00000e-06
       7.51394      0.999938   5.92000e-06
       7.87175      0.999932   7.00000e-06
       8.24335      0.999925   8.27000e-06
       8.63371      0.999918   9.77000e-06
       9.04303      0.999910   1.15000e-05
       9.47135      0.999901   1.36000e-05
       9.91840      0.999891   1.61000e-05
       10.3836      0.999881   1.90000e-05
       10.8754      0.999869   2.23000e-05
       11.3952      0.999857   2.63000e-05
       11.9326      0.999843   3.09000e-05
       12.4942      0.999828   3.64000e-05
       13.0850      0.999812   4.23000e-05
       13.7040      0.999794   4.89000e-05
       14.3512      0.999774   5.64000e-05
       15.0297      0.999752   6.66000e-05
       15.7395      0.999728   7.86000e-05
       16.4845      0.999703   9.27000e-05
       17.2650      0.999677   0.000109000
       18.0808      0.999649   0.000129000
       18.9369      0.999619   0.000150000
       19.8336      0.999587   0.000175000
       20.7706      0.999553   0.000204000
       21.7509      0.999518   0.000238000
       22.7904      0.999482   0.000278000
       23.8561      0.999447   0.000324000
       24.9859      0.999411   0.000376000
       26.1672      0.999378   0.000438000
       27.4050      0.999352   0.000508000
       28.6394      0.999331   0.000581000
       30.0558      0.999317   0.000664000
       31.4830      0.999319   0.000759000
       32.9646      0.999388   0.000784000
       34.5252      0.999331   0.000901000
       36.1563      0.999361    0.00104000
       37.8681      0.999454    0.00119000
       39.6609      0.999676    0.00136000
       40.5827      0.999883    0.00145000
       41.5343       1.00034    0.00154000
       42.5026       1.00105   0.000153000
       43.5018       1.00014   0.000163000
       44.5171      0.999882   0.000174000
       45.5641      0.999709   0.000185000
       47.7030      0.999460   0.000210000
       49.9718      0.999259   0.000238000
       52.3343      0.999077   0.000270000
       54.8099      0.998900   0.000306000
       57.3981      0.998720   0.000346000
       60.1261      0.998540   0.000391000
       62.9660      0.998340   0.000441000
       65.9468      0.998140   0.000496000
       69.0312      0.997920   0.000555000
       72.3337      0.997690   0.000621000
       75.7361      0.997450   0.000696000
       79.3218      0.997180   0.000776000
       83.0409      0.996900   0.000860000
       87.0035      0.996590   0.000952000
       91.0948      0.996250    0.00105000
       95.4426      0.995890    0.00117000
       99.9033      0.995510    0.00129000
       104.624      0.995100    0.00141000
       109.620      0.994640    0.00153000
       114.796      0.994140    0.00167000
       120.252      0.993590    0.00182000
       125.906      0.993010    0.00198000
       131.852      0.992360    0.00212000
       138.093      0.991700    0.00230000
       144.617      0.990960    0.00238000
       151.472      0.990110    0.00244000
       158.623      0.989100    0.00244000
       166.126      0.988000    0.00240000
       173.983      0.986600    0.00226000
       182.216      0.984900    0.00208000
       190.827      0.982800    0.00191000
       199.839      0.980300    0.00168000
       209.284      0.977200    0.00157000
       219.201      0.973300    0.00161000
       229.550      0.968500    0.00197000
       240.411      0.962400    0.00297000
       1200.19      0.940000     0.0300000
       1249.92      0.940000     0.0400000
       1299.99      0.940000     0.0400000
       1349.96      0.940000     0.0500000
       1399.95      0.940000     0.0500000
       1449.89      0.940000     0.0600000
       1500.97      0.940000     0.0600000
       1549.94      0.940000     0.0600000
       1599.95      0.940000     0.0600000
       1649.99      0.930000     0.0600000
       1699.99      0.930000     0.0600000
       1749.89      0.920000     0.0600000
       1799.94      0.920000     0.0600000
       1849.90      0.910000     0.0600000
       1899.79      0.900000     0.0600000
       1949.98      0.880000     0.0500000
       2000.00      0.870000     0.0500000
       2049.93      0.850000     0.0500000
       2149.82      0.830000     0.0500000
       2199.40      0.810000     0.0500000
       2250.09      0.790000     0.0500000
       2299.76      0.780000     0.0400000
       2349.89      0.760000     0.0400000
       2399.92      0.740000     0.0400000
       2449.71      0.720000     0.0400000
       2500.10      0.700000     0.0400000
       2549.98      0.680000     0.0400000
       2599.71      0.660000     0.0400000
       2649.71      0.640000     0.0400000
       2699.91      0.610000     0.0500000
       2749.61      0.580000     0.0500000
       2799.91      0.550000     0.0500000
       2850.11      0.520000     0.0500000
       2900.12      0.480000     0.0600000
       2949.80      0.450000     0.0600000
       2999.76      0.410000     0.0700000
       3049.94      0.380000     0.0700000
       3099.50      0.340000     0.0800000
       3122.92      0.287000     0.0910000
       3341.78     0.0890000      0.288000
       3646.47     0.0520000      0.549000
       4051.63     0.0410000      0.799000
       4202.71     0.0410000      0.898000
       4396.45     0.0430000       1.02000
       4696.21     0.0430000       1.14000
       5060.41     0.0460000       1.28000
       5461.67     0.0490000       1.43000
       5989.37     0.0530000       1.62000
       6629.95     0.0500000       1.84000
       7513.94     0.0440000       2.19000
       8609.72     0.0400000       2.56000
       10079.7     0.0400000       3.04000
       11807.6     0.0440000       3.58000
       13476.1     0.0560000       4.19000
       15306.2     0.0660000       4.75000
       16983.6     0.0790000       5.30000
       18504.5     0.0910000       5.79000
       19679.4      0.106000       6.32000
       21375.9      0.119000       6.72000
       22541.8      0.139000       7.10000
