;  Optical constants for Li
; 
;   taken from:
;
;   'Handbook of Optical Constants of Solids II', Ed. by Edward D. Palik,
;   Academic Press, Inc., 1991.
;   
;    Lambda (A)            n            k
;-----------------------------------------
       1.23980      0.999999   1.14000e-10
       1.29836      0.999999   1.35000e-10
       1.35988      0.999999   1.60000e-10
       1.42408      0.999999   1.90000e-10
       1.49140      0.999999   2.28000e-10
       1.56205      0.999999   2.75000e-10
       1.63584      0.999998   3.31000e-10
       1.71314      0.999998   3.94000e-10
       1.79421      0.999998   4.67000e-10
       1.87905      0.999998   5.55000e-10
       1.96794      0.999998   6.59000e-10
       2.06118      0.999997   7.82000e-10
       2.15843      0.999997   9.29000e-10
       2.26076      0.999997   1.11000e-09
       2.36739      0.999996   1.34000e-09
       2.47960      0.999996   1.61000e-09
       2.59644      0.999996   1.94000e-09
       2.71946      0.999995   2.35000e-09
       2.84815      0.999995   2.83000e-09
       2.98244      0.999995   3.41000e-09
       3.12371      0.999994   4.12000e-09
       3.27124      0.999993   4.96000e-09
       3.42581      0.999993   5.98000e-09
       3.58842      0.999992   7.21000e-09
       3.75811      0.999991   8.69000e-09
       3.93587      0.999990   1.05000e-08
       4.12168      0.999989   1.26000e-08
       4.31685      0.999988   1.52000e-08
       4.52152      0.999987   1.84000e-08
       4.73387      0.999986   2.24000e-08
       4.95920      0.999985   2.71000e-08
       5.19397      0.999983   3.28000e-08
       5.43772      0.999982   3.98000e-08
       5.69499      0.999980   4.82000e-08
       5.96631      0.999978   5.84000e-08
       6.24584      0.999976   7.08000e-08
       6.54248      0.999973   8.56000e-08
       6.85351      0.999970   1.01000e-07
       7.17477      0.999968   1.22000e-07
       7.51394      0.999964   1.48000e-07
       7.87175      0.999961   1.80000e-07
       8.24335      0.999957   2.18000e-07
       8.63371      0.999953   2.65000e-07
       9.04303      0.999948   3.21000e-07
       9.47135      0.999943   3.88000e-07
       9.91840      0.999938   4.70000e-07
       10.3836      0.999932   5.68000e-07
       10.8754      0.999925   6.87000e-07
       11.3952      0.999918   8.30000e-07
       11.9326      0.999910   1.00000e-06
       12.4942      0.999901   1.21000e-06
       13.0850      0.999891   1.46000e-06
       13.7040      0.999880   1.77000e-06
       14.3512      0.999869   2.14000e-06
       15.0297      0.999856   2.58000e-06
       15.7395      0.999841   3.12000e-06
       16.4845      0.999825   3.76000e-06
       17.2650      0.999808   4.54000e-06
       18.0808      0.999789   5.45000e-06
       18.9369      0.999768   6.59000e-06
       19.8336      0.999745   7.98000e-06
       20.2946      0.999733   8.75000e-06
       20.7706      0.999720   9.61000e-06
       21.2549      0.999706   1.05000e-05
       21.7509      0.999692   1.16000e-05
       22.7904      0.999661   1.39000e-05
       23.8561      0.999627   1.67000e-05
       24.9859      0.999590   2.01000e-05
       26.1672      0.999549   2.42000e-05
       27.4050      0.999504   2.92000e-05
       28.6394      0.999454   3.50000e-05
       30.0558      0.999399   4.20000e-05
       31.4830      0.999339   5.04000e-05
       32.9646      0.999273   6.03000e-05
       34.5252      0.999200   7.21000e-05
       36.1563      0.999120   8.61000e-05
       37.8681      0.999031   0.000103000
       39.6609      0.998930   0.000123000
       41.5343      0.998830   0.000147000
       43.5018      0.998710   0.000176000
       45.5641      0.998580   0.000210000
       47.7030      0.998440   0.000249000
       49.9718      0.998280   0.000296000
       52.3343      0.998110   0.000352000
       54.8099      0.997930   0.000419000
       57.3981      0.997720   0.000498000
       60.1261      0.997500   0.000589000
       62.9660      0.997260   0.000696000
       65.9468      0.996990   0.000824000
       69.0312      0.996710   0.000975000
       72.3337      0.996400    0.00114000
       75.7361      0.996070    0.00135000
       79.3218      0.995710    0.00158000
       83.0409      0.995320    0.00186000
       87.0035      0.994890    0.00218000
       91.0948      0.994440    0.00257000
       95.4426      0.993980    0.00302000
       99.9033      0.993490    0.00353000
       104.624      0.992970    0.00413000
       109.620      0.992450    0.00481000
       114.796      0.991810    0.00558000
       120.252      0.991080    0.00663000
       125.906      0.990570    0.00805000
       131.852      0.990250    0.00981000
       138.093      0.990650     0.0118000
       144.617      0.991520     0.0131000
       151.472      0.992100     0.0140000
       158.623      0.992330     0.0147000
       166.126      0.992020     0.0160000
       173.983      0.991690     0.0185000
       182.216      0.992570     0.0228000
       190.827      0.997070     0.0266000
       199.839       1.00300     0.0274000
       209.284       1.01900     0.0266000
       219.201       1.01700     0.0236000
       224.317       1.02600     0.0218000
       229.550       1.02100   0.000686000
       234.944       1.01400   0.000723000
       240.411       1.01000   0.000791000
       1169.62      0.753000     0.0800000
       1192.12      0.743000      0.102000
       1227.52      0.726000      0.108000
       1271.59      0.708000      0.119000
       1311.96      0.680000      0.130000
       1354.97      0.657000      0.144000
       1400.90      0.624000      0.163000
       1450.06      0.601000      0.189000
       1502.79      0.572000      0.214000
       1559.50      0.545000      0.246000
       1620.65      0.517000      0.282000
       1686.80      0.492000      0.320000
       1758.58      0.466000      0.364000
       1836.74      0.440000      0.407000
       1922.17      0.408000      0.460000
       2015.93      0.376000      0.522000
       2119.32      0.342000      0.594000
       2233.87      0.310000      0.688000
       2361.52      0.299000      0.795000
       2504.65      0.302000      0.906000
       2666.24      0.317000       1.01000
       2850.11      0.333000       1.11000
       3061.23      0.346000       1.21000
       3306.13      0.345000       1.32000
       3593.62      0.334000       1.45000
       3935.87      0.304000       1.60000
       4350.18      0.247000       1.82000
       4861.96      0.217000       2.11000
       5510.22      0.206000       2.48000
       6357.95      0.221000       2.94000
       7513.94      0.265000       3.55000
       9183.70      0.338000       4.36000
       11807.6      0.448000       5.58000
       16530.7      0.561000       7.68000
       22959.3      0.661000       12.6000
       88557.1      0.659000       38.0000
