;  Optical constants for LiNbO3, extraordinary ray
; 
;   taken from:
;
;   'Handbook of Optical Constants of Solids', Ed. by Edward D. Palik,
;   Academic Press, Inc., 1985.
;   
;    Lambda (A)            n            k
;-----------------------------------------
       1239.80       1.73000       1.18000
       1271.59       1.97000       1.22000
       1305.05       2.14000       1.12000
       1340.32       2.32000       1.03000
       1377.56       2.42000      0.720000
       1416.91       2.17000      0.340000
       1458.59       1.89000      0.290000
       1502.79       1.63000      0.400000
       1549.75       1.48000      0.570000
       1653.07       1.48000      0.940000
       1771.14       1.75000       1.24000
       1907.38       2.07000       1.26000
       2066.33       2.30000       1.22000
       2156.17       2.46000       1.22000
       2254.18       2.76000       1.16000
       2361.52       2.98000       1.00000
       2479.60       3.10000      0.640000
       2610.11       2.99000      0.250000
       2755.11       2.79000     0.0600000
       2917.18       2.59000       0.00000
       3099.50       2.49000   0.000419000
       4199.86       2.40890       2.30250
       4500.18       2.37800       2.27720
       4999.19       2.34100       2.24570
       5500.44       2.31320       2.22370
       6000.97       2.29670       2.20820
       7000.56       2.27160       2.18740
       7998.71       2.25710       2.17450
       8997.10       2.24480       2.16410
       9998.39       2.23700       2.15670
       12001.9       2.22690       2.14780
       13999.5       2.21840       2.14170
       15999.5       2.21130       2.13610
       17999.4       2.20490       2.13060
       20000.0       2.19740       2.12500
       21997.9       2.19090       2.11830
       23999.2       2.18500       2.11290
       25997.1       2.17780       2.10710
       27999.1       2.17030       2.10090
       29997.6       2.16250       2.09450
       31994.8       2.15430       2.08710
       33995.1       2.14560       2.08040
       35998.8       2.13630       2.07250
       37995.7       2.12630       2.06420
       39993.5       2.11550       2.05530
       49991.9       2.00000       0.00000
       60009.7       1.93000       0.00000
       70005.6       1.83000       0.00000
       79987.1       1.72000       0.00000
       89971.0       1.55000       0.00000
       99983.9       1.30000       0.00000
       110009.      0.810000       0.00000
       124992.      0.460000       1.10000
       128198.      0.440000       1.48000
       131572.      0.450000       1.78000
       135128.      0.460000       2.17000
       138882.      0.530000       2.34000
       142851.      0.560000       2.67000
       147053.      0.750000       3.01000
       151509.       1.05000       3.33000
       156244.       1.44000       3.83000
       158725.       1.85000       4.05000
       161285.       2.52000       4.16000
       163930.       3.42000       4.09000
       166662.       4.02000       3.48000
       169487.       4.24000       2.83000
       172410.       4.47000       2.12000
       178568.       4.17000       1.20000
       185183.       3.67000      0.680000
       192306.       3.20000      0.470000
       200000.       2.67000      0.370000
       208335.       2.28000      0.440000
       217394.       2.06000      0.480000
       227278.       1.82000      0.550000
       238103.       1.27000      0.790000
       250010.      0.830000       1.09000
       263171.      0.480000       1.65000
       277795.      0.320000       2.47000
       294140.      0.370000       3.34000
       312450.      0.700000       4.30000
       322529.       1.16000       4.51000
       333280.       1.20000       4.35000
       344772.      0.750000       4.64000
       357085.      0.800000       5.62000
       370311.      0.940000       6.91000
       384553.       3.04000       9.86000
       399936.       6.58000       10.4000
       416599.       7.48000       7.34000
       434712.       8.55000       4.91000
       454472.       8.32000       3.36000
       476114.       7.66000       2.60000
       499919.       6.78000       2.35000
       526231.       7.08000       2.85000
       555466.       7.86000       2.41000
       588140.       8.03000      0.750000
       624899.       6.93000      0.360000
       666559.       6.33000      0.380000
       714170.       6.17000      0.400000
       769107.       6.01000      0.430000
       833199.       5.84000      0.430000
       999839.       5.66000      0.350000
   1.24992e+06       5.52000      0.180000
   1.66662e+06       5.38000     0.0900000
   1.66662e+06       5.22000    0.00800000
   2.00000e+06       5.16500    0.00480000
   2.50010e+06       5.12500       0.00000
   3.33280e+06       5.10000    0.00290000
   4.99919e+06       5.07000    0.00200000
   9.99839e+06       5.06000    0.00160000
