;  Optical constants for MgO
; 
;   taken from:
;
;   'Handbook of Optical Constants of Solids II', Ed. by Edward D. Palik,
;   Academic Press, Inc., 1991.
;   
;    Lambda (A)            n            k
;-----------------------------------------
       165.307      0.951000     0.0700000
       167.541      0.952000     0.0700000
       169.836      0.954000     0.0690000
       172.194      0.954000     0.0690000
       177.114      0.952000     0.0740000
       182.324      0.952000     0.0770000
       187.848      0.958000     0.0760000
       190.738      0.962000     0.0730000
       193.719      0.964000     0.0640000
       196.794      0.965000     0.0630000
       199.968      0.960000     0.0640000
       203.246      0.950000     0.0670000
       206.633      0.938000     0.0710000
       210.136      0.925000     0.0810000
       213.759      0.926000      0.113000
       217.509      0.954000      0.117000
       221.393      0.964000      0.105000
       225.418      0.964000      0.105000
       227.486      0.965000      0.104000
       229.593      0.966000      0.106000
       233.925      0.975000      0.109000
       238.423      0.985000     0.0940000
       240.738      0.981000     0.0820000
       243.098      0.972000     0.0790000
       247.960      0.963000     0.0840000
       253.020      0.960000     0.0830000
       258.292      0.955000     0.0850000
       263.787      0.950000     0.0840000
       269.522      0.943000     0.0900000
       275.511      0.940000     0.0880000
       281.773      0.930000     0.0940000
       288.326      0.926000      0.103000
       295.190      0.924000      0.106000
       302.390      0.918000      0.113000
       309.950      0.915000      0.123000
       317.897      0.916000      0.129000
       326.263      0.915000      0.133000
       335.081      0.912000      0.138000
       344.389      0.909000      0.140000
       349.239      0.903000      0.143000
       354.229      0.898000      0.153000
       364.647      0.902000      0.165000
       375.697      0.908000      0.169000
       387.438      0.913000      0.166000
       393.587      0.913000      0.160000
       399.935      0.909000      0.153000
       406.492      0.901000      0.145000
       413.267      0.887000      0.142000
       427.517      0.862000      0.142000
       442.786      0.830000      0.142000
       450.836      0.806000      0.146000
       459.185      0.781000      0.155000
       467.849      0.754000      0.168000
       476.846      0.724000      0.188000
       486.196      0.694000      0.221000
       495.920      0.677000      0.264000
       497.912      0.675000      0.275000
       499.919      0.675000      0.287000
       506.041      0.689000      0.303000
       510.206      0.692000      0.304000
       514.440      0.684000      0.309000
       516.583      0.680000      0.313000
       518.745      0.678000      0.319000
       523.122      0.677000      0.325000
       527.574      0.669000      0.328000
       532.103      0.658000      0.334000
       539.043      0.636000      0.348000
       546.167      0.612000      0.365000
       551.022      0.589000      0.382000
       558.468      0.553000      0.423000
       563.545      0.531000      0.464000
       568.716      0.522000      0.511000
       573.981      0.519000      0.507000
       576.651      0.522000      0.586000
       579.346      0.526000      0.614000
       582.066      0.535000      0.642000
       584.811      0.550000      0.669000
       587.583      0.568000      0.693000
       590.381      0.592000      0.716000
       593.206      0.624000      0.723000
       596.058      0.645000      0.720000
       598.937      0.659000      0.723000
       601.845      0.676000      0.710000
       604.781      0.673000      0.704000
       607.745      0.669000      0.704000
       610.739      0.661000      0.707000
       613.762      0.651000      0.716000
       619.900      0.632000      0.752000
       623.015      0.625000      0.786000
       626.162      0.635000      0.820000
       629.340      0.652000      0.847000
       632.551      0.670000      0.871000
       635.795      0.691000      0.892000
       639.072      0.714000      0.911000
       642.383      0.743000      0.930000
       645.729      0.776000      0.918000
       649.110      0.780000      0.929000
       650.814      0.792000      0.929000
       652.526      0.798000      0.929000
       655.979      0.807000      0.935000
       659.468      0.817000      0.944000
       662.995      0.828000      0.955000
       666.559      0.842000      0.969000
       670.162      0.859000      0.982000
       675.640      0.887000      0.996000
       681.209      0.915000       1.00700
       684.972      0.931000       1.01400
       688.778      0.947000       1.02300
       692.626      0.964000       1.03400
       696.517      0.984000       1.04900
       700.452       1.00900       1.06400
       702.436       1.02500       1.07400
       704.432       1.04600       1.08200
       708.457       1.08700       1.07400
       712.529       1.11900       1.08100
       716.647       1.16600       1.07400
       720.814       1.20300       1.04300
       725.029       1.22400       1.02300
       729.294       1.24100       1.00100
       731.445       1.24800       1.00100
       733.609       1.26500       1.00000
       737.976       1.30100      0.976000
       742.395       1.33300      0.941000
       746.867       1.34100      0.883000
       751.394       1.34400      0.862000
       755.976       1.34600      0.810000
       760.614       1.33700      0.774000
       765.309       1.30100      0.714000
       770.062       1.24700      0.705000
       774.875       1.21400      0.724000
       779.748       1.19500      0.727000
       784.684       1.17300      0.736000
       789.682       1.16000      0.760000
       799.871       1.14900      0.773000
       805.065       1.14100      0.788000
       810.327       1.13500      0.798000
       815.658       1.13100      0.819000
       821.060       1.13900      0.835000
       826.533       1.14700      0.841000
       832.081       1.14900      0.843000
       837.703       1.15000      0.852000
       843.401       1.14900      0.847000
       849.178       1.13700      0.851000
       855.034       1.12000      0.864000
       860.972       1.11500      0.883000
       866.993       1.11000      0.903000
       873.099       1.10600      0.919000
       879.291       1.09400      0.929000
       885.571       1.06500      0.947000
       891.942       1.02300      0.994000
       898.406      0.990000       1.08700
       901.673      0.984000       1.13300
       904.964      0.980000       1.21800
       911.618       1.05400       1.35000
       914.982       1.11100       1.41800
       918.370       1.19100       1.47100
       921.784       1.28300       1.49900
       925.224       1.37400       1.50700
       928.689       1.46300       1.50300
       932.180       1.54900       1.47900
       935.698       1.63200       1.44600
       939.242       1.70200       1.38000
       942.814       1.74400       1.31200
       946.412       1.76800       1.24800
       950.038       1.77900       1.19300
       953.692       1.78600       1.14700
       957.375       1.78900       1.10300
       961.085       1.78800       1.06500
       968.594       1.77900      0.997000
       983.968       1.74500      0.894000
       991.840       1.72300      0.858000
       999.839       1.69400      0.824000
       1024.63       1.60300      0.770000
       1033.17       1.56500      0.765000
       1041.85       1.52000      0.767000
       1050.68       1.47300      0.787000
       1064.21       1.39700      0.839000
       1068.79       1.37000      0.890000
       1078.09       1.37100       1.00000
       1087.54       1.40900       1.08100
       1097.17       1.46800       1.16100
       1106.96       1.55500       1.21000
       1111.93       1.60100       1.22000
       1116.94       1.64600       1.23000
       1127.09       1.73500       1.22800
       1137.43       1.81400       1.20200
       1147.96       1.87700       1.16600
       1180.76       1.99900       1.04100
       1215.49       2.04500      0.921000
       1239.80       2.06100      0.867000
       1265.10       2.07400      0.819000
       1278.14       2.07900      0.798000
       1305.05       2.09100      0.761000
       1333.12       2.10300      0.728000
       1377.56       2.13000      0.679000
       1408.86       2.14700      0.642000
       1458.59       2.16000      0.587000
       1511.95       2.17100      0.545000
       1530.62       2.16800      0.532000
       1549.75       2.15400      0.530000
       1559.50       2.14500      0.539000
       1569.37       2.13700      0.558000
       1579.36       2.12700      0.589000
       1583.40       2.12600      0.611000
       1589.49       2.13200      0.651000
       1599.74       2.18000      0.731000
       1610.13       2.27000      0.813000
       1614.32       2.32700      0.851000
       1618.54       2.38900      0.885000
       1622.77       2.49800      0.936000
       1624.90       2.57400      0.949000
       1627.03       2.66500      0.944000
       1629.17       2.75300      0.912000
       1631.32       2.83900      0.866000
       1633.47       2.92200      0.800000
       1635.62       2.99400      0.711000
       1637.78       3.04800      0.600000
       1639.95       3.06100      0.474000
       1642.12       3.03500      0.360000
       1644.30       2.99900      0.272000
       1646.48       2.94400      0.204000
       1648.67       2.89200      0.149000
       1653.07       2.79300     0.0760000
       1657.49       2.70100     0.0390000
       1664.16       2.60300     0.0180000
       1675.41       2.49400    0.00200000
       1686.80       2.41900       0.00000
       1698.36       2.36300       0.00000
       1703.02       2.34600   0.000136000
       1710.07       2.31900       0.00000
       1721.94       2.28100   7.60000e-05
       1725.54       2.26900   6.87000e-05
       1733.99       2.24800       0.00000
       1736.41       2.24100   5.53000e-05
       1746.20       2.22000       0.00000
       1756.09       2.19800   4.19000e-05
       1758.58       2.19600       0.00000
       1771.14       2.17600   3.70000e-05
       1796.81       2.14100       0.00000
       1799.42       2.13800   2.86000e-05
       1823.24       2.11000       0.00000
       1850.45       2.08400   2.00000e-05
       1878.48       2.06000       0.00000
       1907.38       2.03900   1.39000e-05
       1937.19       2.02000       0.00000
       1999.68       1.98600   1.11000e-05
       2066.33       1.95800   1.00000e-05
       2137.59       1.93300   8.50000e-06
       2213.93       1.91100   7.00000e-06
       2254.18       1.90100   6.00000e-06
       2295.93       1.89200   5.00000e-06
       2384.23       1.87400   3.70000e-06
       2435.76       1.86500   3.20000e-06
       2479.60       1.85800   3.10000e-06
       2610.11       1.84000       0.00000
       2755.11       1.82400       0.00000
       2917.18       1.81000       0.00000
       3099.50       1.79800       0.00000
       3306.13       1.78500       0.00000
       3511.19       1.77680       0.00000
       3555.49       1.77550   8.50000e-07
       3609.32       1.77320   5.75000e-07
       3611.42       1.77318   5.65000e-07
       3649.69       1.77186   4.90000e-07
       3820.65       1.76680   2.75000e-07
       3867.12       1.76550   2.45000e-07
       3933.38       1.76380   2.20000e-07
       4046.34       1.76104   1.95000e-07
       4309.35       1.75570   1.70000e-07
       4357.82       1.75471   1.65000e-07
       4578.29       1.75120   1.45000e-07
       4779.49       1.74830   1.15000e-07
       4860.05       1.74711   1.00000e-07
       4879.18       1.74690   9.75000e-08
       4999.19       1.74540   8.25000e-08
       5023.50       1.74530   8.00000e-08
       5085.32       1.74446   7.00000e-08
       5144.40       1.74390   6.55000e-08
       5461.67       1.74077       0.00000
       5892.59       1.73737       0.00000
       6328.74       1.73460       0.00000
       6437.18       1.73400       0.00000
       6563.26       1.73335       0.00000
       6676.36       1.73277       0.00000
       6906.96       1.73191       0.00000
       7064.39       1.73101       0.00000
       7676.78       1.72872       0.00000
       9998.39       1.72290       0.00000
       10137.4       1.72259       0.00000
       10596.6       1.72170       0.00000
       11281.2       1.72059       0.00000
       13189.4       1.71770   7.10000e-08
       13672.3       1.71715       0.00000
       14998.8       1.71530       0.00000
       15294.8       1.71496       0.00000
       15499.4       1.71470       0.00000
       16932.5       1.71281       0.00000
       17091.3       1.71258       0.00000
       18131.0       1.71108       0.00000
       19701.3       1.70885       0.00000
       20000.0       1.70850       0.00000
       22492.7       1.70470       0.00000
       23252.1       1.70350       0.00000
       25001.0       1.70070       0.00000
       26999.1       1.69730   1.10000e-07
       27999.1       1.69540       0.00000
       29997.6       1.69150       0.00000
       33034.9       1.68526       0.00000
       33328.0       1.68460       0.00000
       34477.2       1.68200       0.00000
       35002.8       1.68060       0.00000
       35072.1       1.68055       0.00000
       35708.5       1.67910       0.00000
       37031.1       1.67580       0.00000
       37995.7       1.67340   2.00000e-08
       38455.3       1.67220       0.00000
       39993.5       1.66790   3.70000e-08
       41659.9       1.66340   7.40000e-08
       42575.5       1.66039   1.00000e-07
       43471.2       1.65810   1.50000e-07
       45001.8       1.65330   2.50000e-07
       45447.2       1.65200   2.90000e-07
       47611.4       1.64500   5.80000e-07
       49991.9       1.63730   1.20000e-06
       51273.8       1.63280   1.63000e-06
       52092.4       1.62990   2.00000e-06
       52623.1       1.62780   2.30000e-06
       53187.5       1.62560   2.70000e-06
       53764.1       1.62330   3.10000e-06
       54353.4       1.62100   3.50000e-06
       54931.3       1.61860   4.00000e-06
       55571.5       1.61610   4.60000e-06
       56175.8       1.61350   5.30000e-06
       56819.4       1.61080   6.10000e-06
       57478.0       1.60800   7.10000e-06
       58152.0       1.60510   8.10000e-06
       58814.0       1.60210   9.00000e-06
       59519.9       1.59890   1.10000e-05
       60243.0       1.59570   1.20000e-05
       60983.8       1.59220   1.40000e-05
       61743.0       1.58870   1.60000e-05
       62489.9       1.58490   1.83000e-05
       63287.4       1.58110   2.20000e-05
       64105.5       1.57700   2.50000e-05
       64945.0       1.57270   2.90000e-05
       65806.8       1.56830   3.30000e-05
       66655.9       1.56360   4.60000e-05
       67564.0       1.55100   5.38000e-05
       68497.2       1.55360   5.98000e-05
       69456.6       1.54800   7.00000e-05
       70443.2       1.54300   7.89000e-05
       71417.0       1.53700   8.59000e-05
       72460.5       1.53000   9.30000e-05
       73535.0       1.52400   0.000103000
       74641.8       1.51700   0.000115000
       75736.1       1.50900   0.000131000
       76910.7       1.50200   0.000154000
       78122.2       1.49300   0.000184000
       79372.6       1.48500   0.000211000
       80663.6       1.47500   0.000247000
       81943.2       1.46500   0.000273000
       83319.9       1.45500   0.000309000
       84743.7       1.44300   0.000326000
       86217.0       1.43100   0.000352000
       87742.4       1.41800   0.000414000
       89258.5       1.40400   0.000576000
       90894.4       1.38900   0.000627000
       92591.5       1.37300   0.000847000
       94353.1       1.35500    0.00107000
       95222.7       1.34600    0.00133000
       96183.1       1.33600    0.00158000
       97086.9       1.32600    0.00192000
       98007.9       1.31500    0.00244000
       99025.6       1.30400    0.00302000
       99983.9       1.29200    0.00390000
       101043.       1.28000    0.00470000
       102041.       1.26700    0.00513000
       103145.       1.25300    0.00429000
       104185.       1.23900    0.00355000
       105246.       1.22400    0.00340000
       106421.       1.20900    0.00370000
       107528.       1.19100    0.00458000
       108659.       1.17400    0.00591000
       109911.       1.15500    0.00780000
       111093.       1.13500     0.0102000
       112403.       1.11400     0.0137000
       113639.       1.09100     0.0162000
       114903.       1.06700     0.0196000
       116304.       1.04100     0.0223000
       116962.       1.02700     0.0229000
       117628.       1.01300     0.0227000
       119097.      0.982000     0.0205000
       120486.      0.949000     0.0171000
       121908.      0.913000     0.0147000
       122752.      0.893000     0.0143000
       123486.      0.873000     0.0146000
       124980.      0.829000     0.0167000
       126639.      0.780000     0.0236000
       128211.      0.724000     0.0295000
       129822.      0.660000     0.0346000
       133312.      0.503000     0.0475000
       135054.      0.393000     0.0913000
       136994.      0.267000      0.172000
       138835.      0.156000      0.317000
       140886.      0.139000      0.478000
       142834.      0.132000      0.595000
       144836.      0.134000      0.692000
       147070.      0.136000      0.787000
       149194.      0.143000      0.877000
       151565.      0.154000      0.955000
       153821.      0.155000       1.03000
       156146.      0.151000       1.09000
       158745.      0.135000       1.17000
       161222.      0.116000       1.26000
       163995.      0.108000       1.35000
       166640.     0.0980000       1.45000
       169372.     0.0860000       1.56000
       172434.     0.0870000       1.67000
       175361.     0.0860000       1.78000
       178646.     0.0880000       1.90000
       181789.     0.0890000       2.03000
       185045.     0.0910000       2.16000
       188706.     0.0930000       2.31000
       192217.     0.0970000       2.47000
       196171.      0.102000       2.64000
       199968.      0.109000       2.84000
       203914.      0.119000       3.06000
       208370.      0.131000       3.31000
       212659.      0.148000       3.60000
       217509.      0.170000       3.95000
       222186.      0.207000       4.39000
       227070.      0.261000       4.95000
       232608.      0.362000       5.71000
       237965.      0.543000       6.86000
       244055.       1.01000       8.97000
       249960.       5.05000       15.2000
       256157.       13.5000       4.06000
       263227.       9.28000       1.02000
       270109.       7.44000      0.560000
       277982.       6.46000      0.379000
       285668.       5.83000      0.266000
       291718.       5.35000      0.208000
       303130.       5.03000      0.168000
       312292.       4.74000      0.129000
       322865.       4.51000      0.126000
       333280.       4.36000      0.113000
       370090.       3.97000     0.0290000
       385031.       3.87000     0.0276000
       399936.       3.78000     0.0265000
       416040.       3.71000     0.0254000
       435018.       3.64000     0.0233000
       454139.       3.58000     0.0215000
       476846.       3.53000     0.0214000
       499919.       3.48000     0.0218000
       525339.       3.44000     0.0220000
       555964.       3.40000     0.0236000
       587583.       3.37000     0.0255000
       626162.       3.34000     0.0246000
       666559.       3.31000     0.0280000
       712529.       3.28000     0.0299000
       770062.       3.26000     0.0313000
       832081.       3.24000     0.0338000
       911618.       3.22000     0.0387000
       953692.       3.21000     0.0455000
       999839.       3.20000     0.0356000
   1.05068e+06       3.20000     0.0236000
   1.10696e+06       3.19000     0.0146000
   1.18076e+06       3.18000    0.00620000
   1.24980e+06       3.17800    0.00480000
   1.33312e+06       3.17200    0.00390000
   1.42834e+06       3.16700    0.00342000
   1.53821e+06       3.16200    0.00315000
   1.66640e+06       3.15700    0.00280000
   1.81789e+06       3.15300    0.00253000
   1.99968e+06       3.14900    0.00228000
   2.22186e+06       3.14600    0.00200000
   2.49960e+06       3.14300    0.00179000
   2.85668e+06       3.14000    0.00151000
   3.33280e+06       3.13800    0.00121000
   3.99935e+06       3.13600   0.000980000
   4.99919e+06       3.13400   0.000730000
   6.26162e+06       3.13300   0.000580000
