;  Optical constants for Mo
; 
;   taken from:
;
;   'Handbook of Optical Constants of Solids', Ed. by Edward D. Palik,
;   Academic Press, Inc., 1985.
;   
;    Lambda (A)            n            k
;-----------------------------------------
       6.19900      0.999622   4.84000e-05
       6.35143      0.999600   5.26000e-05
       6.50814      0.999577   5.73000e-05
       6.66559      0.999555   6.22000e-05
       6.69800      0.999530   6.77000e-05
       6.99661      0.999505   7.36000e-05
       7.16647      0.999479   7.99000e-05
       7.34479      0.999451   8.69000e-05
       7.52306      0.999423   9.44000e-05
       7.70541      0.999393   0.000102000
       7.89682      0.999361   0.000111000
       8.08741      0.999329   0.000121000
       8.28743      0.999294   0.000131000
       8.49178      0.999258   0.000143000
       8.69425      0.999222   0.000154000
       8.90661      0.999183   0.000168000
       9.12960      0.999142   0.000182000
       9.34993      0.999100   0.000197000
       9.58114      0.999055   0.000214000
       9.81631      0.999008   0.000232000
       10.0552      0.998960   0.000252000
       10.2973      0.998910   0.000272000
       10.5515      0.998860   0.000295000
       10.8091      0.998800   0.000319000
       11.0795      0.998750   0.000347000
       11.3431      0.998690   0.000375000
       11.6195      0.998630   0.000406000
       11.9097      0.998560   0.000440000
       12.2028      0.998500   0.000477000
       12.4980      0.998430   0.000515000
       12.8079      0.998360   0.000557000
       13.1196      0.998290   0.000602000
       13.4323      0.998210   0.000649000
       13.7603      0.998130   0.000701000
       14.1047      0.998050   0.000759000
       14.4499      0.997970   0.000819000
       14.7947      0.997890   0.000883000
       15.1565      0.997810   0.000953000
       15.5363      0.997720    0.00103000
       15.9153      0.997640    0.00111000
       16.3132      0.997550    0.00119000
       16.7089      0.997470    0.00127000
       17.1007      0.997380    0.00135000
       17.5361      0.997280    0.00144000
       17.9681      0.997180    0.00154000
       18.3947      0.997080    0.00164000
       18.8419      0.996990    0.00175000
       19.3115      0.996880    0.00187000
       19.7735      0.996780    0.00199000
       20.2582      0.996680    0.00213000
       20.7672      0.996580    0.00228000
       21.2659      0.996490    0.00243000
       21.7891      0.996390    0.00259000
       22.3387      0.996310    0.00277000
       22.8745      0.996250    0.00295000
       23.4367      0.996210    0.00315000
       24.0271      0.996220    0.00328000
       24.5992      0.996180    0.00338000
       25.1992      0.996120    0.00348000
       25.8292      0.996040    0.00359000
       26.4350      0.995950    0.00369000
       27.0699      0.995830    0.00380000
       27.7360      0.995680    0.00395000
       28.4358      0.995540    0.00416000
       29.1033      0.995440    0.00437000
       29.8747      0.995350    0.00461000
       30.5369      0.995280    0.00483000
       31.3081      0.995260    0.00509000
       32.1192      0.995280    0.00528000
       32.8859      0.995290    0.00541000
       33.6902      0.995260    0.00555000
       34.5348      0.995220    0.00570000
       35.3219      0.995180    0.00584000
       36.2515      0.995140    0.00600000
       37.1198      0.995120    0.00615000
       38.0307      0.995100    0.00631000
       38.9874      0.995110    0.00648000
       39.8650      0.995170    0.00663000
       40.9175      0.995410    0.00682000
       41.8851      0.995580    0.00663000
       42.8997      0.995690    0.00639000
       43.9645      0.995680    0.00615000
       45.0836      0.995650    0.00585000
       46.0892      0.995520    0.00543000
       47.3206      0.995200    0.00498000
       48.4297      0.994800    0.00461000
       49.5920      0.994330    0.00426000
       50.8115      0.993790    0.00393000
       52.0924      0.993150    0.00362000
       53.4397      0.992430    0.00333000
       54.6167      0.991760    0.00310000
       56.0995      0.990850    0.00283000
       57.3981      0.990000    0.00260000
       58.7583      0.989000    0.00240000
       60.1845      0.987900    0.00258000
       61.6816      0.986900    0.00269000
       63.2551      0.985900    0.00280000
       64.9110      0.984800    0.00291000
       66.2995      0.983900    0.00300000
       68.1209      0.982800    0.00312000
       69.6517      0.981800    0.00322000
       71.2529      0.980700    0.00333000
       72.9294      0.979500    0.00345000
       74.6867      0.978300    0.00360000
       76.5309      0.977000    0.00375000
       78.4684      0.975700    0.00392000
       80.5065      0.974200    0.00410000
       82.6533      0.972600    0.00428000
       84.3401      0.971300    0.00442000
       86.6993      0.969500    0.00462000
       88.5571      0.968000    0.00478000
       91.1618      0.965900    0.00501000
       93.2180      0.964100    0.00519000
       95.3692      0.962300    0.00538000
       97.6220      0.960300    0.00559000
       99.9839      0.958100    0.00580000
       102.463      0.955700    0.00603000
       105.068      0.953200    0.00628000
       107.809      0.950400    0.00654000
       110.696      0.947300    0.00690000
       112.709      0.945100    0.00719000
       115.869      0.941500    0.00764000
       119.212      0.937700    0.00814000
       121.549      0.934900    0.00850000
       123.980      0.931800    0.00889000
       206.633      0.897000      0.106000
       247.960      0.868000      0.151000
       275.511      0.850000      0.187000
       309.950      0.828000      0.235000
       313.873      0.823000      0.241000
       317.897      0.818000      0.250000
       322.026      0.813000      0.261000
       326.263      0.810000      0.273000
       328.424      0.809000      0.281000
       330.613      0.808000      0.289000
       332.832      0.809000      0.297000
       335.081      0.810000      0.303000
       337.361      0.811000      0.312000
       339.671      0.812000      0.321000
       342.014      0.815000      0.331000
       344.389      0.819000      0.341000
       346.313      0.825000      0.350000
       348.258      0.831000      0.358000
       350.226      0.841000      0.367000
       352.216      0.853000      0.373000
       354.229      0.867000      0.375000
       356.264      0.880000      0.373000
       358.324      0.893000      0.368000
       360.407      0.901000      0.360000
       362.515      0.907000      0.352000
       364.647      0.911000      0.344000
       366.805      0.912000      0.334000
       368.988      0.910000      0.326000
       370.090      0.907000      0.322000
       371.198      0.903000      0.321000
       373.434      0.897000      0.323000
       375.697      0.896000      0.327000
       377.988      0.898000      0.330000
       380.307      0.901000      0.331000
       382.654      0.907000      0.331000
       385.031      0.912000      0.327000
       387.438      0.915000      0.323000
       390.488      0.918000      0.315000
       393.587      0.919000      0.307000
       396.736      0.918000      0.298000
       399.935      0.915000      0.288000
       403.187      0.909000      0.279000
       406.492      0.902000      0.271000
       409.851      0.892000      0.263000
       413.267      0.879000      0.259000
       416.740      0.868000      0.256000
       420.271      0.855000      0.257000
       423.863      0.844000      0.256000
       427.517      0.832000      0.259000
       431.235      0.822000      0.261000
       435.018      0.811000      0.263000
       438.867      0.799000      0.265000
       442.786      0.788000      0.269000
       446.775      0.776000      0.272000
       450.836      0.764000      0.276000
       454.972      0.750000      0.281000
       459.185      0.734000      0.289000
       463.477      0.721000      0.298000
       467.849      0.706000      0.308000
       472.305      0.694000      0.319000
       476.846      0.680000      0.329000
       480.543      0.666000      0.341000
       484.297      0.656000      0.353000
       488.110      0.645000      0.367000
       491.984      0.636000      0.380000
       495.920      0.624000      0.393000
       499.919      0.612000      0.410000
       503.984      0.603000      0.429000
       508.115      0.596000      0.447000
       512.314      0.588000      0.468000
       516.583      0.583000      0.491000
       520.924      0.581000      0.511000
       525.339      0.579000      0.532000
       529.829      0.579000      0.553000
       534.397      0.579000      0.575000
       539.043      0.582000      0.595000
       543.772      0.586000      0.614000
       548.584      0.589000      0.633000
       553.482      0.594000      0.650000
       558.468      0.596000      0.668000
       563.545      0.602000      0.685000
       568.716      0.607000      0.700000
       573.981      0.608000      0.715000
       579.346      0.609000      0.733000
       584.811      0.610000      0.752000
       590.381      0.612000      0.773000
       596.058      0.616000      0.794000
       601.845      0.621000      0.815000
       607.745      0.626000      0.838000
       613.762      0.632000      0.862000
       619.900      0.639000      0.887000
       626.162      0.648000      0.913000
       632.551      0.660000      0.940000
       639.072      0.674000      0.968000
       645.729      0.691000      0.996000
       652.526      0.712000       1.02000
       659.468      0.737000       1.05000
       666.559      0.766000       1.08000
       673.804      0.799000       1.10000
       681.209      0.833000       1.11000
       688.778      0.866000       1.12000
       696.517      0.903000       1.13000
       704.432      0.940000       1.14000
       712.529      0.978000       1.14000
       720.814       1.01000       1.13000
       729.294       1.04000       1.12000
       737.976       1.07000       1.11000
       746.867       1.10000       1.10000
       755.976       1.12000       1.08000
       765.309       1.13000       1.06000
       774.875       1.14000       1.04000
       784.684       1.15000       1.02000
       794.744       1.15000       1.01000
       805.065       1.15000      0.994000
       815.658       1.14000      0.989000
       826.533       1.14000      0.987000
       837.703       1.14000      0.987000
       849.178       1.13000      0.990000
       860.972       1.13000      0.997000
       873.099       1.14000       1.01000
       885.571       1.15000       1.01000
       898.406       1.15000       1.02000
       911.618       1.17000       1.02000
       925.224       1.18000       1.02000
       939.242       1.20000       1.03000
       953.692       1.21000       1.02000
       968.594       1.23000       1.01000
       983.968       1.24000      0.993000
       999.839       1.25000      0.975000
       1016.23       1.26000      0.953000
       1033.17       1.26000      0.921000
       1050.68       1.25000      0.886000
       1068.79       1.23000      0.845000
       1087.54       1.18000      0.802000
       1106.96       1.12000      0.782000
       1127.09       1.05000      0.774000
       1147.96      0.977000      0.791000
       1169.62      0.909000      0.835000
       1192.12      0.859000      0.881000
       1215.49      0.812000      0.930000
       1239.80      0.770000      0.987000
       1265.10      0.735000       1.05000
       1291.46      0.707000       1.12000
       1318.94      0.685000       1.19000
       1347.61      0.670000       1.25000
       1377.56      0.652000       1.33000
       1408.86      0.647000       1.41000
       1441.63      0.649000       1.49000
       1475.95      0.659000       1.57000
       1511.95      0.672000       1.65000
       1549.75      0.685000       1.73000
       1569.37      0.697000       1.77000
       1589.49      0.711000       1.81000
       1610.13      0.726000       1.85000
       1631.32      0.745000       1.90000
       1653.07      0.781000       1.93000
       1675.41      0.808000       1.95000
       1698.36      0.816000       1.96000
       1721.94      0.813000       1.98000
       1746.20      0.808000       2.00000
       1771.14      0.798000       2.04000
       1796.81      0.791000       2.08000
       1823.24      0.784000       2.12000
       1850.45      0.777000       2.18000
       1878.48      0.779000       2.24000
       1907.38      0.783000       2.30000
       1937.19      0.789000       2.36000
       1967.94      0.798000       2.43000
       1999.68      0.813000       2.50000
       2032.46      0.836000       2.57000
       2066.33      0.850000       2.64000
       2101.36      0.873000       2.72000
       2137.59      0.895000       2.80000
       2175.09      0.924000       2.89000
       2213.93      0.959000       2.99000
       2254.18       1.00000       3.09000
       2295.93       1.06000       3.20000
       2339.25       1.13000       3.31000
       2384.23       1.22000       3.42000
       2430.98       1.33000       3.53000
       2479.60       1.46000       3.62000
       2530.20       1.61000       3.70000
       2582.92       1.75000       3.76000
       2637.87       1.90000       3.81000
       2695.22       2.06000       3.84000
       2755.11       2.21000       3.87000
       2817.73       2.39000       3.88000
       2883.26       2.59000       3.86000
       2951.90       2.77000       3.77000
       3023.90       2.91000       3.67000
       3099.50       3.01000       3.51000
       3178.97       3.04000       3.40000
       3262.63       3.04000       3.31000
       3350.81       3.04000       3.27000
       3443.89       3.05000       3.24000
       3542.29       3.06000       3.21000
       3646.47       3.06000       3.19000
       3756.97       3.06000       3.18000
       3874.38       3.05000       3.18000
       3999.35       3.03000       3.22000
       4132.67       3.04000       3.27000
       4275.17       3.05000       3.33000
       4427.86       3.08000       3.42000
       4591.85       3.13000       3.51000
       4768.46       3.22000       3.61000
       4959.20       3.36000       3.73000
       5165.83       3.59000       3.78000
       5390.44       3.79000       3.61000
       5635.45       3.76000       3.41000
       5903.81       3.68000       3.45000
       6199.00       3.68000       3.52000
       6525.26       3.74000       3.58000
       6887.78       3.81000       3.58000
       7292.94       3.84000       3.51000
       7748.75       3.77000       3.41000
       8265.33       3.53000       3.30000
       8855.71       3.15000       3.40000
       9536.92       2.77000       3.74000
       10331.7       2.44000       4.22000
       11270.9       2.16000       4.85000
       12398.0       1.94000       5.58000
       13775.6       1.74000       6.48000
       14416.3       1.70000       6.90000
       15119.5       1.64000       7.35000
       15894.9       1.60000       7.83000
       16754.1       1.52000       8.38000
       17711.4       1.48000       8.99000
       18784.8       1.43000       9.67000
       19996.8       1.38000       10.4000
       21375.9       1.34000       11.3000
       22959.3       1.35000       12.4000
       24796.0       1.37000       13.5000
       26952.2       1.46000       14.9000
       29519.0       1.57000       16.5000
       32626.3       1.70000       18.4000
       36464.7       1.99000       20.8000
       41326.7       2.44000       23.8000
       42751.7       2.58000       24.7000
       44278.6       2.74000       25.6000
       45918.5       2.92000       26.6000
       47684.6       3.14000       27.6000
       49592.0       3.36000       28.8000
       51658.3       3.61000       30.0000
       53904.3       3.92000       31.3000
       56354.5       4.26000       32.7000
       59038.1       4.65000       34.3000
       61990.0       5.10000       36.0000
       65252.6       5.61000       37.8000
       68877.8       6.21000       39.9000
       72929.4       6.90000       42.2000
       77487.5       7.74000       44.7000
       82653.3       8.78000       47.5000
       88557.1       9.96000       50.7000
       95369.2       11.4000       54.4000
       103317.       13.4000       58.4000
       112709.       15.6000       63.1000
       123980.       18.5000       68.5000
