;  Optical constants for Na
; 
;   taken from:
;
;   'Handbook of Optical Constants of Solids II', Ed. by Edward D. Palik,
;   Academic Press, Inc., 1991.
;   
;    Lambda (A)            n            k
;-----------------------------------------
       1.23980      0.999998   1.38000e-08
       1.29836      0.999998   1.66000e-08
       1.35988      0.999998   2.00000e-08
       1.42408      0.999997   2.41000e-08
       1.49140      0.999997   2.91000e-08
       1.56205      0.999997   3.50000e-08
       1.63584      0.999997   4.21000e-08
       1.71314      0.999996   5.07000e-08
       1.79421      0.999996   6.09000e-08
       1.87905      0.999996   7.33000e-08
       1.96794      0.999995   8.81000e-08
       2.06118      0.999995   1.06000e-07
       2.15843      0.999994   1.27000e-07
       2.26076      0.999993   1.53000e-07
       2.36739      0.999993   1.83000e-07
       2.47960      0.999992   2.20000e-07
       2.59644      0.999991   2.64000e-07
       2.71946      0.999991   3.16000e-07
       2.84815      0.999990   3.79000e-07
       2.98244      0.999988   4.54000e-07
       3.12371      0.999987   5.44000e-07
       3.27124      0.999986   6.52000e-07
       3.42581      0.999985   7.80000e-07
       3.58842      0.999983   9.32000e-07
       3.75811      0.999982   1.12000e-06
       3.93587      0.999980   1.33000e-06
       4.12168      0.999978   1.59000e-06
       4.31685      0.999976   1.90000e-06
       4.52152      0.999973   2.26000e-06
       4.73387      0.999971   2.70000e-06
       4.95920      0.999968   3.22000e-06
       5.19397      0.999965   3.83000e-06
       5.43772      0.999962   4.55000e-06
       5.69499      0.999958   5.41000e-06
       5.96631      0.999954   6.43000e-06
       6.24584      0.999950   7.62000e-06
       6.54248      0.999945   9.02000e-06
       6.85351      0.999940   1.07000e-05
       7.17477      0.999935   1.26000e-05
       7.51394      0.999929   1.49000e-05
       7.87175      0.999923   1.76000e-05
       8.24335      0.999916   2.08000e-05
       8.63371      0.999910   2.45000e-05
       9.04303      0.999903   2.88000e-05
       9.47135      0.999897   3.40000e-05
       9.91840      0.999891   4.01000e-05
       10.3836      0.999887   4.73000e-05
       10.8754      0.999888   5.58000e-05
       11.1293      0.999893   6.06000e-05
       11.3952      0.999909   6.58000e-05
       11.6523      0.999922   4.76000e-06
       11.9326      0.999891   5.20000e-06
       12.2028      0.999874   5.68000e-06
       12.4942      0.999861   6.21000e-06
       13.0850      0.999838   7.42000e-06
       13.7040      0.999816   8.84000e-06
       14.3512      0.999793   1.05000e-05
       15.0297      0.999769   1.25000e-05
       15.7395      0.999743   1.48000e-05
       16.4845      0.999715   1.76000e-05
       17.2650      0.999684   2.09000e-05
       18.0808      0.999651   2.47000e-05
       18.9369      0.999614   2.93000e-05
       19.8336      0.999574   3.47000e-05
       20.7706      0.999530   4.07000e-05
       21.7509      0.999482   4.80000e-05
       22.7904      0.999429   5.65000e-05
       23.8561      0.999371   6.66000e-05
       24.9859      0.999306   7.85000e-05
       26.1672      0.999236   9.25000e-05
       27.4050      0.999159   0.000109000
       28.6394      0.999074   0.000129000
       30.0558      0.998980   0.000152000
       31.4830      0.998880   0.000180000
       32.9646      0.998770   0.000212000
       34.5252      0.998650   0.000250000
       36.1563      0.998510   0.000295000
       37.8681      0.998370   0.000346000
       39.6609      0.998210   0.000406000
       41.5343      0.998040   0.000477000
       43.5018      0.997850   0.000560000
       45.5641      0.997650   0.000658000
       47.7030      0.997440   0.000771000
       49.9718      0.997200   0.000898000
       52.3343      0.996950    0.00104000
       54.8099      0.996670    0.00122000
       57.3981      0.996380    0.00141000
       60.1261      0.996070    0.00164000
       62.9660      0.995750    0.00191000
       65.9468      0.995400    0.00220000
       69.0312      0.995030    0.00253000
       72.3337      0.994630    0.00291000
       75.7361      0.994220    0.00335000
       79.3218      0.993800    0.00385000
       83.0409      0.993390    0.00443000
       87.0035      0.992980    0.00503000
       91.0948      0.992540    0.00569000
       95.4426      0.992090    0.00645000
       99.9033      0.991630    0.00731000
       104.624      0.991190    0.00827000
       109.620      0.990760    0.00935000
       114.796      0.990400     0.0106000
       120.252      0.990120     0.0120000
       125.906      0.990090     0.0134000
       131.852      0.990080     0.0148000
       138.093      0.990110     0.0164000
       144.617      0.990370     0.0181000
       151.472      0.990820     0.0196000
       158.623      0.991220     0.0212000
       166.126      0.991730     0.0229000
       173.983      0.992470     0.0248000
       182.216      0.993760     0.0265000
       190.827      0.994850     0.0278000
       199.839      0.995910     0.0292000
       209.284      0.997050     0.0305000
       219.201      0.998250     0.0321000
       229.550      0.999606     0.0336000
       240.411       1.00100     0.0352000
       1435.95      0.762000       0.00000
       1546.85      0.710000       0.00000
       1579.97      0.700000       0.00000
       1634.97      0.674000       0.00000
       1691.87      0.641000       0.00000
       1738.85      0.616000       0.00000
       1799.94      0.574000       0.00000
       1849.90      0.533000       0.00000
       1899.79      0.485000       0.00000
       1949.98      0.454000       0.00000
       2000.00      0.390000       0.00000
       3122.92     0.0490000       1.01000
       3341.78     0.0550000       1.13000
       3646.47     0.0610000       1.33000
       3874.38     0.0650000       1.47000
       4051.63     0.0690000       1.54000
       4202.71     0.0680000       1.63000
       4396.45     0.0680000       1.76000
       4696.21     0.0660000       1.88000
       5060.41     0.0630000       2.07000
       5461.67     0.0590000       2.23000
       5989.37     0.0530000       2.48000
       6629.95     0.0490000       2.76000
       7513.94     0.0500000       3.22000
       8609.72     0.0530000       3.72000
       10079.7     0.0640000       4.35000
       11807.6     0.0780000       5.11000
       13476.1     0.0990000       5.82000
       15306.2      0.123000       6.67000
       16983.6      0.147000       7.42000
       18504.5      0.175000       8.09000
       19679.4      0.207000       8.80000
       21375.9      0.241000       9.45000
       22541.8      0.262000       9.97000
