;  Optical constants for Nb
; 
;   taken from:
;
;   'Handbook of Optical Constants of Solids II', Ed. by Edward D. Palik,
;   Academic Press, Inc., 1991.
;   
;    Lambda (A)            n            k
;-----------------------------------------
       1.23980      0.999985   6.55000e-07
       1.29836      0.999983   7.80000e-07
       1.35988      0.999981   9.28000e-07
       1.42408      0.999979   1.10000e-06
       1.49140      0.999977   1.31000e-06
       1.56205      0.999975   1.56000e-06
       1.63584      0.999973   1.86000e-06
       1.71314      0.999970   2.21000e-06
       1.79421      0.999967   2.62000e-06
       1.87905      0.999964   3.11000e-06
       1.96794      0.999960   3.70000e-06
       2.06118      0.999956   4.39000e-06
       2.15843      0.999952   5.21000e-06
       2.26076      0.999947   6.18000e-06
       2.36739      0.999942   7.34000e-06
       2.47960      0.999937   8.70000e-06
       2.59644      0.999931   1.03000e-05
       2.71946      0.999924   1.22000e-05
       2.84815      0.999918   1.44000e-05
       2.98244      0.999910   1.71000e-05
       3.12371      0.999902   2.02000e-05
       3.27124      0.999893   2.38000e-05
       3.42581      0.999884   2.81000e-05
       3.58842      0.999874   3.31000e-05
       3.75811      0.999864   3.90000e-05
       3.93587      0.999854   4.59000e-05
       4.12168      0.999845   5.39000e-05
       4.31685      0.999836   6.32000e-05
       4.41682      0.999833   6.84000e-05
       4.52152      0.999832   7.40000e-05
       4.62612      0.999832   7.02000e-05
       4.73387      0.999826   7.59000e-05
       4.84486      0.999825   8.21000e-05
       4.95920      0.999831   8.88000e-05
       5.07491      0.999835   6.97000e-05
       5.19397      0.999839   7.57000e-05
       5.31419      0.999822   2.21000e-05
       5.43772      0.999795   2.38000e-05
       5.56463      0.999775   2.58000e-05
       5.69499      0.999757   2.79000e-05
       5.96631      0.999723   3.26000e-05
       6.24584      0.999688   3.83000e-05
       6.54248      0.999651   4.49000e-05
       6.85351      0.999613   5.27000e-05
       7.17477      0.999570   6.19000e-05
       7.51394      0.999525   7.29000e-05
       7.87175      0.999475   8.58000e-05
       8.24335      0.999422   0.000101000
       8.63371      0.999364   0.000118000
       9.04303      0.999301   0.000138000
       9.47135      0.999232   0.000161000
       9.91840      0.999157   0.000188000
       10.3836      0.999076   0.000220000
       10.8754      0.998990   0.000256000
       11.3952      0.998890   0.000299000
       11.9326      0.998790   0.000347000
       12.4942      0.998680   0.000405000
       13.0850      0.998560   0.000470000
       13.7040      0.998430   0.000549000
       14.3512      0.998300   0.000647000
       15.0297      0.998170   0.000750000
       15.7395      0.998030   0.000858000
       16.4845      0.997870   0.000982000
       17.2650      0.997720    0.00112000
       18.0808      0.997550    0.00127000
       18.9369      0.997370    0.00144000
       19.8336      0.997190    0.00164000
       20.7706      0.997000    0.00186000
       21.7509      0.996820    0.00211000
       22.7821      0.996660    0.00240000
       23.8561      0.996510    0.00267000
       24.9859      0.996350    0.00296000
       25.5682      0.996270    0.00312000
       26.1672      0.996200    0.00329000
       26.7775      0.996130    0.00347000
       27.4050      0.996080    0.00365000
       28.0434      0.996020    0.00382000
       28.6991      0.995960    0.00400000
       30.0558      0.995870    0.00438000
       30.7643      0.995850    0.00459000
       31.4830      0.995850    0.00477000
       32.2193      0.995840    0.00493000
       32.9646      0.995820    0.00510000
       33.7361      0.995810    0.00528000
       34.5252      0.995800    0.00546000
       35.3320      0.995800    0.00565000
       36.1563      0.995840    0.00583000
       37.0090      0.995900    0.00597000
       38.7559      0.995970    0.00622000
       40.5827      0.996120    0.00648000
       42.5026      0.996280    0.00648000
       44.5171      0.996370    0.00648000
       46.6266      0.996630    0.00628000
       48.8302      0.996580    0.00577000
       51.1258      0.996450    0.00506000
       53.5551      0.995860    0.00412000
       56.0742      0.994720    0.00323000
       57.3981      0.994000    0.00287000
       58.7305      0.993220    0.00262000
       60.1261      0.992380    0.00241000
       61.5285      0.991490    0.00230000
       62.9660      0.990600    0.00226000
       64.4387      0.989700    0.00229000
       65.9468      0.988800    0.00234000
       69.0312      0.987100    0.00255000
       72.3337      0.985300    0.00270000
       75.7361      0.983400    0.00286000
       79.3218      0.981400    0.00301000
       83.0409      0.979100    0.00316000
       87.0035      0.976700    0.00327000
       91.0948      0.974000    0.00340000
       95.4426      0.970900    0.00351000
       99.9033      0.967600    0.00360000
       104.624      0.963800    0.00369000
       109.620      0.959500    0.00375000
       114.796      0.954600    0.00378000
       120.252      0.949000    0.00387000
       125.906      0.942400    0.00403000
       131.852      0.934800    0.00469000
       138.093      0.926300    0.00574000
       144.617      0.916400    0.00734000
       151.472      0.905400    0.00992000
       158.623      0.892900     0.0135000
       166.126      0.879100     0.0187000
       173.983      0.864300     0.0257000
       182.216      0.847800     0.0345000
       190.827      0.829900     0.0462000
       195.275      0.820600     0.0536000
       199.839      0.811300     0.0620000
       204.520      0.802100     0.0710000
       209.284      0.792600     0.0812000
       214.202      0.782800     0.0927000
       219.201      0.773200      0.106000
       229.550      0.755900      0.138000
       240.411      0.745100      0.178000
       306.123      0.920000      0.470000
       313.873      0.950000      0.500000
       322.026       1.00000      0.530000
       330.613       1.07000      0.530000
       336.902       1.11000      0.520000
       340.604       1.13000      0.510000
       344.389       1.15000      0.500000
       348.258       1.16000      0.490000
       352.216       1.17000      0.470000
       356.264       1.19000      0.460000
       360.407       1.20000      0.440000
       364.647       1.20000      0.420000
       366.805       1.21000      0.410000
       368.988       1.21000      0.410000
       371.198       1.21000      0.400000
       373.434       1.21000      0.390000
       375.697       1.21000      0.380000
       377.988       1.21000      0.370000
       380.307       1.21000      0.360000
       382.654       1.21000      0.350000
       385.031       1.21000      0.350000
       387.438       1.20000      0.340000
       389.874       1.20000      0.330000
       392.342       1.20000      0.320000
       394.841       1.19000      0.320000
       397.372       1.18000      0.310000
       399.935       1.18000      0.310000
       402.532       1.17000      0.310000
       405.163       1.18000      0.310000
       407.829       1.18000      0.300000
       410.530       1.18000      0.290000
       413.267       1.18000      0.280000
       416.040       1.17000      0.270000
       418.851       1.16000      0.260000
       421.701       1.15000      0.250000
       424.589       1.14000      0.250000
       427.517       1.13000      0.250000
       430.486       1.12000      0.250000
       433.496       1.11000      0.240000
       436.549       1.10000      0.240000
       439.645       1.09000      0.240000
       442.786       1.08000      0.240000
       445.971       1.07000      0.250000
       449.203       1.06000      0.250000
       452.482       1.05000      0.250000
       455.809       1.05000      0.250000
       459.185       1.04000      0.250000
       462.612       1.03000      0.250000
       466.090       1.03000      0.250000
       469.621       1.02000      0.260000
       473.206       1.01000      0.260000
       476.846       1.00000      0.260000
       480.543      0.990000      0.260000
       484.297      0.990000      0.260000
       488.110      0.980000      0.270000
       491.984      0.970000      0.270000
       495.920      0.960000      0.270000
       499.919      0.950000      0.280000
       503.984      0.940000      0.280000
       508.115      0.930000      0.280000
       512.314      0.920000      0.290000
       516.583      0.910000      0.290000
       520.924      0.900000      0.300000
       525.339      0.880000      0.300000
       529.829      0.870000      0.310000
       534.397      0.860000      0.320000
       539.043      0.850000      0.330000
       543.772      0.830000      0.340000
       548.584      0.820000      0.350000
       553.482      0.810000      0.360000
       558.468      0.790000      0.380000
       563.545      0.780000      0.400000
       568.716      0.770000      0.410000
       573.981      0.750000      0.430000
       579.346      0.740000      0.450000
       584.811      0.730000      0.470000
       590.381      0.720000      0.500000
       596.058      0.720000      0.520000
       601.845      0.710000      0.550000
       607.745      0.720000      0.570000
       613.762      0.720000      0.600000
       619.900      0.720000      0.620000
       626.162      0.720000      0.640000
       632.551      0.720000      0.660000
       639.072      0.730000      0.680000
       645.729      0.730000      0.690000
       652.526      0.720000      0.720000
       659.468      0.730000      0.740000
       666.559      0.730000      0.770000
       673.804      0.730000      0.790000
       681.209      0.730000      0.820000
       688.778      0.740000      0.850000
       696.517      0.750000      0.870000
       704.432      0.760000      0.900000
       712.529      0.770000      0.930000
       720.814      0.790000      0.960000
       729.294      0.800000      0.990000
       737.976      0.820000       1.02000
       746.867      0.850000       1.04000
       755.976      0.870000       1.06000
       765.309      0.890000       1.09000
       774.875      0.920000       1.11000
       784.684      0.950000       1.13000
       794.744      0.990000       1.14000
       805.065       1.02000       1.15000
       815.658       1.05000       1.16000
       826.533       1.08000       1.16000
       837.703       1.11000       1.16000
       849.178       1.14000       1.15000
       860.972       1.16000       1.15000
       873.099       1.18000       1.14000
       885.571       1.20000       1.13000
       898.406       1.22000       1.13000
       911.618       1.23000       1.12000
       925.224       1.24000       1.10000
       939.242       1.24000       1.09000
       953.692       1.24000       1.09000
       968.594       1.24000       1.09000
       983.968       1.24000       1.09000
       999.839       1.24000       1.10000
       1016.23       1.25000       1.11000
       1033.17       1.25000       1.12000
       1050.68       1.27000       1.13000
       1068.79       1.28000       1.13000
       1087.54       1.30000       1.13000
       1097.17       1.31000       1.12000
       1106.96       1.31000       1.12000
       1116.94       1.32000       1.11000
       1127.09       1.32000       1.10000
       1137.43       1.32000       1.09000
       1147.96       1.32000       1.08000
       1158.69       1.31000       1.07000
       1169.62       1.30000       1.06000
       1180.76       1.29000       1.05000
       1192.12       1.27000       1.04000
       1203.69       1.25000       1.04000
       1215.49       1.23000       1.04000
       1227.52       1.20000       1.04000
       1239.80       1.18000       1.05000
       1252.32       1.15000       1.06000
       1265.10       1.13000       1.09000
       1278.14       1.11000       1.11000
       1291.46       1.10000       1.13000
       1305.05       1.08000       1.15000
       1318.94       1.07000       1.18000
       1333.12       1.06000       1.19000
       1347.61       1.04000       1.22000
       1362.42       1.02000       1.25000
       1377.56       1.01000       1.29000
       1393.03       1.00000       1.32000
       1408.86       1.00000       1.36000
       1425.06      0.990000       1.39000
       1441.63      0.990000       1.43000
       1475.95      0.990000       1.51000
       1511.95       1.00000       1.60000
       1549.75       1.02000       1.69000
       1589.49       1.07000       1.78000
       1631.32       1.14000       1.85000
       1675.41       1.20000       1.88000
       1721.94       1.22000       1.91000
       1771.14       1.23000       1.96000
       1823.24       1.24000       2.04000
       1878.48       1.26000       2.14000
       1937.19       1.31000       2.25000
       1999.68       1.38000       2.38000
       2066.33       1.49000       2.49000
       2137.59       1.63000       2.60000
       2213.93       1.81000       2.67000
       2295.93       2.00000       2.68000
       2384.23       2.16000       2.62000
       2479.60       2.26000       2.57000
       2582.92       2.32000       2.52000
       2695.22       2.39000       2.56000
       2817.73       2.53000       2.56000
       2951.90       2.64000       2.42000
       3099.50       2.64000       2.33000
       3178.97       2.62000       2.29000
       3262.63       2.59000       2.28000
       3350.81       2.56000       2.27000
       3443.89       2.52000       2.29000
       3542.29       2.48000       2.33000
       3646.47       2.46000       2.38000
       3756.97       2.44000       2.45000
       3874.38       2.45000       2.53000
       3999.35       2.48000       2.60000
       4132.67       2.51000       2.68000
       4350.18       2.58000       2.80000
       4508.36       2.66000       2.86000
       4678.49       2.74000       2.90000
       4861.96       2.83000       2.92000
       5060.41       2.89000       2.90000
       5275.75       2.92000       2.88000
       5510.22       2.93000       2.87000
       5766.51       2.92000       2.87000
       6047.81       2.89000       2.87000
       6357.95       2.82000       2.86000
       6701.62       2.69000       2.89000
       7084.57       2.54000       2.99000
       7513.94       2.36000       3.13000
       7998.71       2.15000       3.37000
       8550.34       1.95000       3.68000
       9183.70       1.76000       4.13000
       9918.40       1.65000       4.63000
       10780.9       1.55000       5.18000
       11807.6       1.44000       5.86000
       13050.5       1.35000       6.70000
       14585.9       1.35000       7.74000
       16530.7       1.41000       9.00000
       19073.8       1.57000       10.6000
       22541.8       1.83000       12.7000
       27551.1       2.28000       15.6000
       35422.9       3.11000       20.0000
       44278.6       4.26000       25.0000
       51658.3       5.47000       28.9000
       61990.0       7.25000       34.1000
       77487.5       10.2000       41.7000
       103317.       16.0000       53.2000
