;  Optical constants for
; 
;   taken from:
;
;   J. H. Weaver, C. Krafka, D. W. Lynch, and E. E. Koch, 'Physik Daten,
;   Physics Data: Optical Properties of Metals', Vol. 18-1 and 18-2,
;   Fach-information zentrum, Karlsruhe, 1981.
;   
;    Lambda (A)            n            k
;-----------------------------------------
   306.12	.92	.47    
   313.87	.95	.50    
   322.03       1.0	.53   
   330.61       1.0	.53   
   336.90       1.11	.52    
   340.60	1.13	.51
   344.39	1.15	.50
   348.26       1.16	.49
   352.22	1.17	.47
   356.26	1.19	.46
   360.41	1.20	.44
   364.65       1.20	.42
   366.80	1.21	.41
   368.99	1.21	.41
   371.20	1.21	.40
   373.43	1.21	.39
   375.70       1.21	.38
   377.99	1.21	.37
   380.31	1.21	.36
   382.65	1.21	.35
   385.03	1.21	.35
   387.44       1.20	.34
   389.87	1.20	.33
   392.34	1.20	.32
   394.84	1.19	.32
   397.37	1.18	.31
   399.93       1.18	.31
   402.53	1.17	.31
   405.16	1.18	.31
   407.83	1.18	.30
   410.53	1.18	.29
   413.27	1.18	.28
   416.04	1.17	.27
   418.85	1.16	.26
   421.70	1.15	.25
   424.58	1.14	.25
   427.52	1.13	.25
   430.49	1.12	.25
   433.50	1.11	.24
   436.55	1.10	.24
   439.65	1.09	.24
   442.79	1.08	.24
   445.97	1.07	.25
   449.20	1.06	.25
   452.48	1.05	.25
   455.81	1.05	.25
   459.19	1.04	.25
   462.61	1.03	.25
   466.09	1.03	.25
   469.62	1.02	.26
   473.21	1.01	.26
   476.85	1.00	.26
   480.54	.99	.26
   484.30	.99	.26
   488.11	.98	.27
   491.98	.97	.27
   495.92	.96	.27
   499.92	.95	.28
   503.98	.94	.28
   508.11	.93	.28
   512.31	.92	.29
   516.58	.91	.29
   520.92	.90	.30
   525.34	.88	.30
   529.83	.87	.31
   534.40	.86	.32
   539.04	.85	.33
   543.77	.83	.34
   548.58	.82	.35
   553.48	.81	.36
   558.47	.79	.38
   563.55	.78	.40
   568.72	.77	.41
   573.98	.75	.43
   579.35	.74	.45
   584.81	.73	.47
   590.38	.72	.50
   596.06	.72	.52
   601.84	.71	.55
   607.75	.72	.57
   613.76	.72	.60
   619.90	.72	.62
   626.16	.72	.64
   632.55	.72	.66
   639.07	.73	.68
   645.73	.73	.69
   652.53	.72	.72
   659.47	.73	.74
   666.56	.73	.77
   673.80	.73	.79
   681.21	.73	.82
   688.78	.74	.85
   696.52	.75	.87
   704.43	.76	.90
   712.53	.77	.93
   720.81	.79	.96
   729.29	.80	.99
   737.98	.82	1.02
   746.87	.85	1.04
   755.98	.87	1.06
   765.31	.89	1.09
   774.87	.92	1.11
   784.68	.95	1.13
   794.74	.99	1.14
   805.06	1.02	1.15
   815.66	1.05	1.16
   826.53	1.08	1.16
   837.70	1.11	1.16
   849.18	1.14	1.15
   860.97	1.16	1.15
   873.10	1.18	1.14
   885.57	1.20	1.13
   898.41	1.22	1.13
   911.62	1.23	1.12
   925.22	1.24	1.10
   939.24	1.24	1.09
   953.69	1.24	1.09
   968.59	1.24	1.09
   983.97	1.24	1.09
   999.84	1.24	1.10
  1016.23	1.25	1.11
  1033.17	1.25	1.12
  1050.68	1.27	1.13
  1068.79	1.28	1.13
  1087.54	1.30	1.13
  1097.17	1.31	1.12
  1106.96	1.31	1.12
  1116.94	1.32	1.11
  1127.09	1.32	1.10
  1137.43	1.32	1.09
  1147.97	1.32	1.08
  1158.69	1.31	1.07
  1169.62	1.30	1.06
  1180.76	1.29	1.05
  1192.12	1.27	1.04
  1203.69	1.25	1.04
  1215.49	1.23	1.04
  1227.52	1.20	1.04
  1239.80	1.18	1.05
  1252.32	1.15	1.06
  1265.10	1.13	1.09
  1278.14	1.11	1.11
  1291.46	1.10	1.13
  1305.05	1.08	1.15
