;  Optical constants for Ni
; 
;   taken from:
;
;   'Handbook of Optical Constants of Solids', Ed. by Edward D. Palik,
;   Academic Press, Inc., 1985.
;   
;    Lambda (A)            n            k
;-----------------------------------------
       1.24992      0.999983   1.92000e-06
       1.34996      0.999981   2.54000e-06
       1.44989      0.999980   3.29000e-06
       1.49988      0.999982   4.98000e-07
       1.74989      0.999969   8.74000e-07
       2.00000      0.999958   1.43000e-06
       2.50010      0.999933   3.23000e-06
       2.99976      0.999901   6.35000e-06
       3.50028      0.999864   1.12000e-05
       3.99935      0.999820   1.84000e-05
       4.99919      0.999715   4.19000e-05
       6.00097      0.999585   8.23000e-05
       6.19900      0.999559   8.81000e-05
       6.35143      0.999538   9.61000e-05
       6.50814      0.999516   0.000105000
       6.66559      0.999493   0.000114000
       6.83085      0.999468   0.000125000
       6.99661      0.999444   0.000136000
       7.00056      0.999436   0.000146000
       7.16647      0.999418   0.000148000
       7.34479      0.999391   0.000162000
       7.52306      0.999363   0.000176000
       7.70541      0.999335   0.000191000
       7.89682      0.999304   0.000209000
       7.99871      0.999415   0.000178000
       8.08741      0.999274   0.000227000
       8.28743      0.999242   0.000248000
       8.33759      0.999409   0.000190000
       8.49178      0.999210   0.000270000
       8.69425      0.999178   0.000292000
       8.90661      0.999145   0.000318000
       9.12960      0.999109   0.000346000
       9.34993      0.999075   0.000376000
       9.58114      0.999040   0.000409000
       9.81631      0.999005   0.000445000
       9.88676      0.999200   0.000320000
       10.0552      0.998970   0.000483000
       10.2973      0.998940   0.000524000
       10.4360      0.999130   0.000440000
       10.5515      0.998910   0.000569000
       10.8091      0.998880   0.000618000
       11.0795      0.998850   0.000672000
       11.3431      0.998830   0.000728000
       11.6195      0.998810   0.000791000
       11.9097      0.998810   0.000860000
       12.2028      0.998830   0.000933000
       12.2510      0.999115   0.000530000
       12.4980      0.998860   0.000909000
       12.8079      0.998850   0.000969000
       13.1196      0.998860    0.00105000
       13.3398      0.998980   0.000720000
       13.4323      0.998920    0.00114000
       13.7603      0.999081   0.000123000
       14.1047      0.999565   0.000134000
       14.4499      0.999820   0.000630000
       14.5602      0.998860   0.000960000
       14.7947      0.992990   0.000195000
       15.1565      0.998900   0.000209000
       15.5363      0.998700   0.000225000
       15.9153      0.998530   0.000242000
       15.9686      0.998770   0.000210000
       16.3132      0.998370   0.000263000
       16.7089      0.998220   0.000284000
       17.1007      0.998090   0.000306000
       17.5361      0.997930   0.000332000
       17.5883      0.998250   0.000280000
       17.9681      0.997790   0.000359000
       18.3947      0.997640   0.000387000
       18.8419      0.997490   0.000419000
       19.3115      0.997330   0.000453000
       19.4478      0.997830   0.000370000
       19.7735      0.997170   0.000489000
       20.2582      0.997010   0.000528000
       20.7672      0.996830   0.000571000
       21.2659      0.996650   0.000616000
       21.6408      0.996950   0.000610000
       21.7891      0.996460   0.000665000
       22.3387      0.996260   0.000719000
       22.8745      0.996070   0.000775000
       23.4367      0.995850   0.000836000
       23.6197      0.996670   0.000730000
       24.0271      0.995630   0.000903000
       24.5992      0.995400   0.000972000
       24.7811      0.996060   0.000910000
       25.1992      0.995170    0.00105000
       25.8292      0.994910    0.00113000
       26.4350      0.994660    0.00121000
       27.0699      0.994400    0.00131000
       27.4171      0.995270    0.00100000
       27.7360      0.994110    0.00141000
       28.4358      0.993810    0.00152000
       29.1033      0.993520    0.00163000
       29.8747      0.993170    0.00177000
       30.5369      0.992870    0.00189000
       31.3081      0.992510    0.00203000
       31.3556      0.994000    0.00150000
       32.1192      0.992130    0.00220000
       32.8859      0.991770    0.00236000
       33.6902      0.991380    0.00253000
       34.5348      0.990960    0.00272000
       35.3219      0.990560    0.00291000
       36.2515      0.990090    0.00314000
       37.1198      0.989600    0.00337000
       38.0307      0.989200    0.00361000
       38.9874      0.988700    0.00388000
       39.8650      0.988200    0.00414000
       40.9175      0.987600    0.00447000
       41.3267      0.988000    0.00513000
       41.8851      0.987100    0.00477000
       42.8997      0.986500    0.00511000
       43.9645      0.985900    0.00547000
       45.0836      0.985300    0.00588000
       46.0892      0.984700    0.00625000
       47.3206      0.984000    0.00672000
       47.6846      0.985100    0.00765000
       48.4297      0.983400    0.00716000
       49.5920      0.982700    0.00764000
       50.8115      0.982000    0.00817000
       52.0924      0.981200    0.00874000
       53.4397      0.980400    0.00935000
       54.6167      0.979700    0.00991000
       56.0995      0.978800     0.0106000
       56.3545      0.980900     0.0122000
       57.3981      0.978100     0.0113000
       58.7583      0.977200     0.0120000
       60.1845      0.976400     0.0128000
       61.6816      0.975500     0.0136000
       61.9900      0.978000     0.0159000
       63.2551      0.974600     0.0145000
       64.9110      0.973600     0.0155000
       66.2995      0.972800     0.0163000
       68.1209      0.971700     0.0174000
       68.8778      0.975100     0.0203000
       69.6517      0.970800     0.0184000
       71.2529      0.969900     0.0194000
       72.9294      0.968900     0.0205000
       74.6867      0.967900     0.0217000
       76.5309      0.966800     0.0230000
       78.4684      0.965800     0.0244000
       80.5065      0.964700     0.0258000
       82.6533      0.963500     0.0273000
       82.6533      0.969000     0.0310000
       84.3401      0.962500     0.0286000
       86.6993      0.961200     0.0304000
       88.5571      0.960300     0.0318000
       88.5571      0.951000     0.0416000
       91.1618      0.958900     0.0339000
       93.2180      0.957800     0.0357000
       95.3692      0.957000     0.0375000
       95.3692      0.948000     0.0513000
       97.6220      0.956000     0.0391000
       99.9839      0.954900     0.0409000
       102.463      0.953800     0.0427000
       103.317      0.965000     0.0540000
       103.317      0.948000     0.0621000
       105.068      0.952500     0.0447000
       107.809      0.951100     0.0469000
       110.696      0.949700     0.0492000
       112.709      0.948700     0.0508000
       112.709      0.968000     0.0599000
       112.709      0.950000     0.0703000
       115.869      0.947100     0.0534000
       118.076      0.968000     0.0625000
       119.212      0.945400     0.0563000
       121.549      0.944300     0.0583000
       123.980      0.943000     0.0604000
       123.980      0.967000     0.0653000
       123.980      0.943000     0.0775000
       126.510      0.939000     0.0801000
       129.146      0.938000     0.0836000
       131.894      0.936000     0.0873000
       134.761      0.935000     0.0911000
       137.756      0.936000     0.0944000
       140.886      0.936000     0.0981000
       144.163      0.934000      0.102000
       147.595      0.932000      0.107000
       151.195      0.933000      0.114000
       154.975      0.936000      0.121000
       158.949      0.942000      0.128000
       163.132      0.944000      0.135000
       167.541      0.947000      0.137000
       172.194      0.952000      0.144000
       177.114      0.952000      0.156000
       179.681      0.960000      0.161000
       182.324      0.975000      0.168000
       185.045      0.986000      0.166000
       187.848       1.00900      0.163000
       190.738       1.00200      0.124000
       193.719      0.980000      0.106000
       196.794      0.971000      0.108000
       199.968      0.964000      0.112000
       203.246      0.960000      0.115000
       206.633      0.955000      0.118000
       213.759      0.948000      0.123000
       221.393      0.942000      0.129000
       229.593      0.937000      0.135000
       238.423      0.931000      0.143000
       247.960      0.926000      0.151000
       275.511      0.884000      0.129000
       309.950      0.865000      0.179000
       354.229      0.858000      0.241000
       413.267      0.860000      0.318000
       427.517      0.863000      0.336000
       442.786      0.868000      0.354000
       459.185      0.873000      0.372000
       476.846      0.877000      0.394000
       495.920      0.888000      0.418000
       506.041      0.897000      0.427000
       516.583      0.905000      0.431000
       527.574      0.911000      0.438000
       539.043      0.915000      0.436000
       551.022      0.911000      0.443000
       563.545      0.909000      0.451000
       576.651      0.906000      0.458000
       590.381      0.898000      0.471000
       604.781      0.893000      0.493000
       619.900      0.894000      0.513000
       635.795      0.896000      0.537000
       652.526      0.904000      0.560000
       670.162      0.912000      0.582000
       688.778      0.924000      0.606000
       708.457      0.941000      0.628000
       729.294      0.959000      0.643000
       751.394      0.975000      0.660000
       774.875      0.993000      0.674000
       787.175       1.00000      0.680000
       799.871       1.01000      0.687000
       812.984       1.02000      0.694000
       826.533       1.03000      0.700000
       840.542       1.04000      0.704000
       855.034       1.05000      0.703000
       870.035       1.05000      0.705000
       885.571       1.07000      0.707000
       901.673       1.07000      0.704000
       918.370       1.07000      0.705000
       935.698       1.08000      0.706000
       953.692       1.08000      0.706000
       972.392       1.08000      0.709000
       991.840       1.08000      0.709000
       1012.08       1.07000      0.712000
       1033.17       1.07000      0.715000
       1055.15       1.07000      0.714000
       1078.09       1.05000      0.715000
       1102.04       1.04000      0.717000
       1127.09       1.01000      0.727000
       1147.96      0.993000      0.747000
       1169.62      0.974000      0.759000
       1192.12      0.951000      0.800000
       1215.49      0.948000      0.833000
       1239.80      0.946000      0.867000
       1265.10      0.948000      0.895000
       1291.46      0.949000      0.927000
       1318.94      0.954000      0.957000
       1347.61      0.959000      0.987000
       1377.56      0.966000       1.01000
       1408.86      0.972000       1.05000
       1441.63      0.981000       1.08000
       1475.95      0.992000       1.11000
       1511.95       1.00000       1.13000
       1549.75       1.01000       1.15000
       1589.49       1.02000       1.18000
       1631.32       1.02000       1.21000
       1675.41       1.03000       1.24000
       1721.94       1.03000       1.27000
       1771.14       1.03000       1.30000
       1823.24       1.02000       1.35000
       1878.48       1.01000       1.40000
       1937.19       1.01000       1.46000
       1999.68       1.00000       1.54000
       2101.36       1.02000       1.67000
       2137.59       1.04000       1.73000
       2175.09       1.06000       1.78000
       2213.93       1.09000       1.83000
       2254.18       1.12000       1.88000
       2295.93       1.16000       1.94000
       2339.25       1.21000       1.99000
       2384.23       1.27000       2.04000
       2430.98       1.33000       2.07000
       2479.60       1.40000       2.10000
       2530.20       1.47000       2.11000
       2582.92       1.53000       2.11000
       2637.87       1.59000       2.10000
       2695.22       1.63000       2.09000
       2755.11       1.67000       2.07000
       2817.73       1.71000       2.06000
       2883.26       1.73000       2.03000
       2951.90       1.74000       2.01000
       3023.90       1.74000       1.99000
       3099.50       1.73000       1.98000
       3178.97       1.72000       1.98000
       3262.63       1.69000       1.99000
       3350.81       1.66000       2.02000
       3443.89       1.64000       2.07000
       3542.29       1.63000       2.11000
       3646.47       1.62000       2.17000
       3756.97       1.61000       2.23000
       3874.38       1.61000       2.30000
       3999.35       1.61000       2.36000
       4132.67       1.61000       2.44000
       4275.17       1.62000       2.52000
       4427.86       1.62000       2.61000
       4591.85       1.64000       2.71000
       4768.46       1.66000       2.81000
       4959.20       1.67000       2.93000
       5165.83       1.71000       3.06000
       5390.44       1.75000       3.19000
       5635.45       1.80000       3.33000
       5903.81       1.85000       3.48000
       6199.00       1.93000       3.65000
       6357.95       1.98000       3.74000
       6525.26       2.02000       3.82000
       6701.62       2.08000       3.91000
       6887.78       2.14000       4.00000
       7084.57       2.21000       4.09000
       7292.94       2.28000       4.18000
       7513.94       2.36000       4.25000
       7748.75       2.43000       4.31000
       7998.71       2.48000       4.38000
       8265.33       2.53000       4.47000
       8550.34       2.59000       4.55000
       8855.71       2.65000       4.63000
       9183.70       2.69000       4.73000
       9536.92       2.74000       4.85000
       9918.40       2.80000       4.97000
       10331.7       2.85000       5.10000
       10780.9       2.91000       5.24000
       11270.9       2.97000       5.38000
       11807.6       3.01000       5.55000
       12398.0       3.06000       5.74000
       13050.5       3.11000       5.98000
       13775.6       3.18000       6.23000
       14585.9       3.27000       6.51000
       15497.5       3.38000       6.82000
       16530.7       3.49000       7.13000
       17711.4       3.59000       7.48000
       19073.8       3.69000       7.92000
       20663.3       3.84000       8.35000
       22541.8       3.90000       8.92000
       24796.0       4.03000       9.64000
       27551.1       4.20000       10.2000
       30995.0       3.84000       11.4000
       32626.3       3.92000       12.1000
       34438.9       4.00000       12.7000
       36464.7       4.07000       13.4000
       38743.8       4.12000       14.2000
       41326.7       4.19000       15.0000
       44278.6       4.30000       16.0000
       47684.6       4.29000       17.1000
       51658.3       4.16000       18.4000
       56354.5       4.11000       20.2000
       61990.0       4.12000       22.5000
       65252.6       4.30000       23.8000
       68877.8       4.45000       25.2000
       72929.4       4.68000       26.8000
       77487.5       5.00000       28.6000
       82653.3       5.45000       30.6000
       88557.1       5.83000       32.8000
       95369.2       6.44000       35.3000
       103317.       7.11000       38.3000
       112709.       8.12000       41.8000
       123980.       9.54000       45.8000
