;  Optical constants for Os
; 
;   taken from:
;
;   'Handbook of Optical Constants of Solids', Ed. by Edward D. Palik,
;   Academic Press, Inc., 1985.
;   
;    Lambda (A)            n            k
;-----------------------------------------
       6.19900      0.999626   0.000336000
       6.35143      0.999529   0.000125000
       6.50814      0.999467   0.000135000
       6.66559      0.999405   0.000145000
       6.83085      0.999350   0.000157000
       6.99661      0.999297   0.000169000
       7.16647      0.999245   0.000182000
       7.34479      0.999192   0.000196000
       7.52306      0.999140   0.000211000
       7.70541      0.999087   0.000228000
       7.89682      0.999031   0.000245000
       8.08741      0.998980   0.000264000
       8.28743      0.998920   0.000285000
       8.49178      0.998860   0.000306000
       8.69425      0.998800   0.000329000
       8.90661      0.998730   0.000354000
       9.12960      0.998660   0.000382000
       9.34993      0.998600   0.000411000
       9.58114      0.998520   0.000442000
       9.81631      0.998450   0.000476000
       10.0552      0.998370   0.000512000
       10.2973      0.998300   0.000549000
       10.5515      0.998210   0.000591000
       10.8091      0.998130   0.000635000
       11.0795      0.998040   0.000684000
       11.3431      0.997950   0.000734000
       11.6195      0.997850   0.000788000
       11.9097      0.997750   0.000849000
       12.2028      0.997650   0.000912000
       12.4980      0.997550   0.000977000
       12.8079      0.997440    0.00105000
       13.1196      0.997330    0.00112000
       13.4323      0.997220    0.00120000
       13.7603      0.997100    0.00129000
       14.1047      0.996980    0.00138000
       14.4499      0.996860    0.00147000
       14.7947      0.996740    0.00157000
       15.1565      0.996610    0.00168000
       15.5363      0.996470    0.00180000
       15.9153      0.996340    0.00192000
       16.3132      0.996200    0.00205000
       16.7314      0.996070    0.00218000
       17.1007      0.995940    0.00232000
       17.5361      0.995790    0.00248000
       17.9681      0.995670    0.00264000
       18.3947      0.995560    0.00280000
       18.8419      0.995430    0.00291000
       19.3115      0.995270    0.00303000
       19.7735      0.995090    0.00319000
       20.2582      0.994910    0.00338000
       20.7672      0.994730    0.00358000
       21.2659      0.994560    0.00379000
       21.7891      0.994400    0.00401000
       22.3387      0.994220    0.00425000
       22.8745      0.994080    0.00448000
       23.4367      0.993950    0.00472000
       24.0271      0.993830    0.00493000
       24.5992      0.993690    0.00511000
       25.1992      0.993510    0.00529000
       25.8292      0.993310    0.00549000
       26.4350      0.993100    0.00568000
       27.0699      0.992860    0.00588000
       27.7360      0.992570    0.00614000
       28.4358      0.992300    0.00646000
       29.1033      0.992050    0.00678000
       29.8747      0.991790    0.00716000
       30.5369      0.991590    0.00749000
       31.3081      0.991390    0.00789000
       32.1192      0.991220    0.00823000
       32.8859      0.991010    0.00853000
       33.6902      0.990780    0.00885000
       34.5348      0.990540    0.00920000
       35.3219      0.990300    0.00952000
       36.2515      0.990020    0.00991000
       37.1198      0.989700     0.0103000
       38.0307      0.989500     0.0107000
       38.9874      0.989200     0.0111000
       39.8650      0.988900     0.0115000
       40.9175      0.988600     0.0119000
       41.8851      0.988300     0.0124000
       42.8997      0.988000     0.0128000
       43.9645      0.987800     0.0133000
       45.0836      0.987600     0.0138000
       46.0892      0.987300     0.0141000
       47.3206      0.987000     0.0145000
       48.4297      0.986700     0.0149000
       49.5920      0.986300     0.0153000
       50.8115      0.986000     0.0157000
       52.0924      0.985500     0.0161000
       53.4397      0.985100     0.0165000
       54.6167      0.984600     0.0169000
       56.0995      0.984100     0.0174000
       57.3981      0.983600     0.0178000
       58.7583      0.983200     0.0182000
       60.1845      0.982700     0.0185000
       61.6816      0.982000     0.0189000
       63.2551      0.981200     0.0192000
       65.2526      0.980400     0.0197000
       66.2995      0.979600     0.0200000
       68.1209      0.978500     0.0205000
       69.6517      0.977500     0.0209000
       71.2529      0.976400     0.0213000
       72.9294      0.975200     0.0220000
       74.6867      0.974100     0.0228000
       76.5309      0.972900     0.0236000
       78.4684      0.971700     0.0245000
       80.5065      0.970400     0.0254000
       82.6533      0.969000     0.0263000
       84.3401      0.968000     0.0271000
       86.6993      0.966500     0.0282000
       88.5571      0.965400     0.0291000
       91.1618      0.963900     0.0303000
       93.2180      0.962600     0.0313000
       95.3692      0.961900     0.0322000
       97.6220      0.960800     0.0324000
       99.9839      0.959300     0.0326000
       102.463      0.957400     0.0329000
       105.068      0.955200     0.0331000
       107.809      0.952600     0.0334000
       110.696      0.949500     0.0336000
       112.709      0.947100     0.0338000
       115.869      0.943100     0.0348000
       119.212      0.938900     0.0359000
       121.549      0.935600     0.0366000
       299.976      0.833000      0.127000
       309.950      0.800000      0.138000
       319.948      0.768000      0.155000
       329.997      0.740000      0.173000
       339.951      0.710000      0.193000
       350.028      0.685000      0.222000
       359.988      0.660000      0.247000
       369.979      0.638000      0.279000
       379.957      0.620000      0.315000
       389.997      0.613000      0.350000
       399.935      0.590000      0.390000
       409.987      0.580000      0.432000
       419.986      0.572000      0.473000
       430.038      0.566000      0.513000
       439.957      0.562000      0.552000
       450.018      0.557000      0.590000
       460.037      0.557000      0.627000
       469.977      0.560000      0.662000
       479.985      0.563000      0.695000
       490.040      0.568000      0.739000
       499.919      0.578000      0.760000
       509.996      0.588000      0.790000
       520.050      0.597000      0.817000
       530.056      0.603000      0.842000
       539.983      0.610000      0.868000
       550.044      0.617000      0.890000
       559.982      0.627000      0.910000
       570.023      0.630000      0.932000
       579.888      0.642000      0.952000
       590.100      0.653000      0.973000
       600.097      0.667000      0.992000
       609.838      0.687000       1.01000
       619.900      0.708000       1.03000
       629.980      0.730000       1.05000
       640.062      0.760000       1.06000
       650.131      0.788000       1.08000
       659.819      0.824000       1.08000
       669.800      0.857000       1.09000
       680.088      0.887000       1.08000
       689.928      0.920000       1.08000
       700.057      0.857000       1.09000
       710.080      0.975000       1.05000
       719.977      0.995000       1.03000
       730.153       1.01000       1.01000
       740.179       1.03000      0.993000
       750.030       1.03000      0.963000
       760.147       1.03000      0.942000
       770.062       1.03000      0.922000
       779.748       1.03000      0.908000
       790.185       1.03000      0.902000
       799.871       1.02000      0.902000
       809.797       1.01000      0.908000
       819.974       1.01000      0.918000
       829.853       1.01000      0.927000
       839.973       1.00000      0.935000
       849.760      0.999000      0.945000
       859.778      0.997000      0.953000
       870.035       1.00000      0.963000
       879.915       1.00000      0.972000
       890.022       1.01000      0.983000
       899.710       1.02000      0.993000
       910.279       1.04000       1.01000
       919.733       1.06000       1.01000
       930.083       1.07000       1.03000
       939.955       1.09000       1.04000
       950.038       1.10000       1.05000
       959.598       1.12000       1.06000
       970.110       1.13000       1.07000
       980.079       1.14000       1.08000
       990.256       1.15000       1.09000
       999.839       1.16000       1.10000
       1049.79       1.21000       1.14000
       1100.09       1.24000       1.17000
       1150.09       1.25000       1.18000
       1200.19       1.26000       1.18000
       1249.92       1.25000       1.19000
       1299.99       1.23000       1.23000
       1349.96       1.20000       1.27000
       1399.95       1.17000       1.33000
       1449.89       1.12000       1.41000
       1499.88       1.08000       1.49000
       1549.94       1.05000       1.59000
       1599.95       1.03000       1.69000
       1649.99       1.02000       1.78000
       1699.99       1.02000       1.88000
       1749.89       1.03000       1.97000
       1799.94       1.05000       1.05000
       1849.90       1.08000       2.13000
       1899.79       1.12000       2.20000
       1949.98       1.16000       2.27000
       2000.00       1.18000       2.33000
