;  Optical constants for cubic PbS
; 
;   taken from:
;
;   'Handbook of Optical Constants of Solids', Ed. by Edward D. Palik,
;   Academic Press, Inc., 1985.
;   
;    Lambda (A)            n            k
;-----------------------------------------
       495.920      0.845000      0.171000
       516.583      0.800000      0.196000
       532.103      0.772000      0.238000
       546.167      0.760000      0.291000
       566.119      0.831000      0.372000
       576.651      0.870000      0.339000
       582.066      0.858000      0.324000
       601.845      0.847000      0.339000
       626.162      0.881000      0.370000
       645.729      0.911000      0.332000
       666.559      0.881000      0.300000
       688.778      0.846000      0.294000
       708.457      0.814000      0.298000
       729.294      0.778000      0.307000
       751.394      0.734000      0.327000
       774.875      0.687000      0.364000
       794.744      0.651000      0.412000
       815.658      0.628000      0.472000
       837.703      0.619000      0.538000
       860.972      0.627000      0.606000
       885.571      0.651000      0.665000
       918.370      0.687000      0.725000
       953.692      0.725000      0.769000
       991.840      0.758000      0.807000
       1033.17      0.789000      0.843000
       1078.09      0.811000      0.872000
       1127.09      0.821000      0.912000
       1180.76      0.836000      0.974000
       1239.80      0.879000       1.05000
       1305.05      0.968000       1.09600
       1377.56       1.00700       1.06600
       1441.63      0.997000       1.06000
       1511.95      0.921000       1.14000
       1610.13      0.999000       1.27300
       1721.94       1.03700       1.29900
       1823.24       1.02400       1.36100
       1937.19      0.951000       1.48900
       1999.68       1.13000       1.70000
       2101.36       1.22000       1.78000
       2194.34       1.22000       1.85000
       2295.93       1.33000       1.95000
       2407.38       1.43000       2.05000
       2504.65       1.52000       2.10000
       2610.11       1.53000       2.20000
       2695.22       1.55000       2.30000
       2786.07       1.53000       2.45000
       2883.26       1.57000       2.53000
       2987.47       1.67000       2.70000
       3099.50       1.73000       2.83000
       3220.26       1.90000       3.00000
       3306.13       2.07000       3.17000
       3396.71       2.33000       3.32000
       3492.39       2.58000       3.37000
       3593.62       2.98000       3.37000
       3700.90       3.17000       3.37000
       3814.77       3.32000       3.30000
       3935.87       3.62000       3.17000
       4132.67       3.88000       3.00000
       4275.17       4.12000       2.70000
       4508.36       4.25000       2.33000
       4861.96       4.35000       2.00000
       5275.75       4.33000       1.67000
       5635.45       4.30000       1.55000
       6199.00       4.29000       1.48000
       6887.78       4.53000       1.30000
       7748.75       4.62000      0.940000
       8855.71       4.50000      0.830000
       9536.92       4.48000      0.627000
       9998.39       4.43000      0.597000
       10506.8       4.38500      0.543000
       10971.7       4.35500      0.508000
       12036.9       4.30000      0.458000
       13009.4       4.27500      0.403000
       14009.0       4.26000      0.390000
       15027.9       4.25000      0.370000
       15997.4       4.24000      0.357000
       16983.6       4.23500      0.341000
       17968.1       4.23500      0.334000
       19073.8       4.24000      0.318000
       19996.8       4.25000      0.310000
       21013.6       4.24500      0.304000
       22021.3       4.25500      0.285000
       23001.9       4.26000      0.271000
       24027.1       4.28000      0.255000
       24996.0       4.30000      0.235000
       25991.6       4.33500      0.212000
       27010.9       4.38000      0.182000
       27986.5       4.42000      0.144000
       28699.1       4.43500     0.0903000
       30019.4       4.34500     0.0459000
       30995.0       4.30000     0.0227000
       32540.7       4.26000    0.00346000
       35002.8       4.21500   0.000648000
       37501.5       4.18500   0.000622000
       39993.5       4.16000   0.000638000
       42502.6       4.14000   0.000651000
       45001.8       4.12500   0.000747000
       49991.9       4.11500   0.000925000
       60009.7       4.10000    0.00138000
       70005.6       4.09000    0.00206000
       79987.1       4.07000    0.00306000
       89971.0       4.04000    0.00442000
       99983.9       4.01000    0.00632000
       99983.9       4.02000       0.00000
       105246.       4.01000       0.00000
       111093.       4.00000       0.00000
       117628.       3.98000       0.00000
       120019.       3.90000     0.0114000
       124992.       3.97000       0.00000
       133326.       3.95000       0.00000
       139995.       3.79500     0.0183000
       142851.       3.93000       0.00000
       153840.       3.90000       0.00000
       159995.       3.68000       0.00000
       166662.       3.86000       0.00000
       179994.       3.54500       0.00000
       181816.       3.81000       0.00000
       200000.       3.39000       0.00000
       200000.       3.75000       0.00000
       219979.       3.20500       0.00000
       222226.       3.66000       0.00000
       239992.       2.99500       0.00000
       250010.       3.53000       0.00000
       285734.       3.33000       0.00000
       333280.       2.99000       0.00000
       359988.       2.74000     0.0977000
       379957.       2.53000      0.127000
       399936.       2.28000      0.167000
       419986.       1.98000      0.226000
       439957.       1.61000      0.326000
       460037.       1.13000      0.540000
       479984.      0.688000       1.03000
       499919.      0.514000       1.59000
       550044.      0.433000       2.67000
       600097.      0.452000       3.55000
       700056.      0.582000       5.14000
       799871.      0.809000       6.74000
       899710.       1.17500       8.48000
       999839.       1.79000       10.5100
   1.20019e+06       5.06000       15.9800
   1.39995e+06       17.4100       17.9400
   1.59995e+06       20.4700       7.10000
   1.79994e+06       17.8700       3.47000
   2.00000e+06       16.2700       2.20000
   2.50010e+06       14.4000       1.15000
   2.99976e+06       13.6200      0.785000
   3.50028e+06       13.2100      0.604000
   3.99935e+06       12.9600      0.495000
   4.99919e+06       12.6900      0.367000
   7.50030e+06       12.4400      0.228000
   9.99839e+06       12.3500      0.167000
   1.49988e+07       12.2900      0.109000
   2.00000e+07       12.2700     0.0815000
