;  Optical constants for Pt
; 
;   taken from:
;
;   'Handbook of Optical Constants of Solids', Ed. by Edward D. Palik,
;   Academic Press, Inc., 1985.
;   
;    Lambda (A)            n            k
;-----------------------------------------
       6.19900      0.999528   0.000123000
       6.35143      0.999476   0.000133000
       6.50814      0.999421   0.000143000
       6.66559      0.999377   0.000154000
       6.83085      0.999332   0.000167000
       6.99661      0.999288   0.000180000
       7.16647      0.999243   0.000194000
       7.34479      0.999197   0.000209000
       7.52306      0.999150   0.000225000
       7.70541      0.999102   0.000243000
       7.89682      0.999051   0.000262000
       8.08741      0.999000   0.000282000
       8.28743      0.998950   0.000304000
       8.49178      0.998890   0.000327000
       8.69425      0.998830   0.000351000
       8.90661      0.998770   0.000378000
       9.12960      0.998710   0.000406000
       9.34993      0.998650   0.000438000
       9.58114      0.998580   0.000472000
       9.81631      0.998510   0.000508000
       10.0552      0.998440   0.000546000
       10.2973      0.998370   0.000586000
       10.5515      0.998290   0.000630000
       10.8091      0.998210   0.000677000
       11.0795      0.998130   0.000729000
       11.3431      0.998050   0.000782000
       11.6195      0.997960   0.000840000
       11.9097      0.997870   0.000905000
       12.2028      0.997780   0.000972000
       12.4980      0.997690       0.00000
       12.8079      0.997590    0.00112000
       13.1196      0.997490    0.00120000
       13.4323      0.997390    0.00128000
       13.7603      0.997290    0.00137000
       14.1047      0.997180    0.00147000
       14.4499      0.997070    0.00157000
       14.7947      0.996970    0.00168000
       15.1565      0.996860    0.00179000
       15.5363      0.996750    0.00192000
       15.9153      0.996660    0.00205000
       16.3132      0.996560    0.00216000
       16.7089      0.996460    0.00227000
       17.1007      0.996340    0.00238000
       17.5361      0.996200    0.00251000
       17.9681      0.996060    0.00266000
       18.3947      0.995920    0.00282000
       18.8419      0.995790    0.00299000
       19.3115      0.995660    0.00319000
       19.7735      0.995550    0.00337000
       20.2582      0.995440    0.00355000
       20.7672      0.995320    0.00376000
       21.2659      0.995210    0.00396000
       21.7891      0.995130    0.00417000
       22.3387      0.995080    0.00437000
       22.8745      0.994980    0.00446000
       23.4367      0.994820    0.00454000
       24.0271      0.994580    0.00474000
       24.5992      0.994370    0.00498000
       25.1992      0.994190    0.00523000
       25.8292      0.994000    0.00551000
       26.4350      0.993840    0.00578000
       27.0699      0.993680    0.00607000
       27.7360      0.993530    0.00638000
       28.4358      0.993380    0.00670000
       29.1033      0.993240    0.00700000
       29.8747      0.993100    0.00737000
       30.5369      0.993000    0.00770000
       31.3081      0.992930    0.00808000
       32.1192      0.992900    0.00836000
       32.8859      0.992840    0.00859000
       33.6902      0.992730    0.00884000
       34.5348      0.992600    0.00909000
       35.3219      0.992460    0.00933000
       36.2515      0.992280    0.00962000
       37.1198      0.992120    0.00988000
       38.0307      0.991930       0.00000
       38.9874      0.991740     0.0105000
       39.8650      0.991550     0.0107000
       40.9175      0.991300     0.0111000
       41.8851      0.991080     0.0114000
       42.8997      0.990850     0.0117000
       43.9645      0.990600     0.0120000
       45.0836      0.990340     0.0124000
       46.0892      0.990100     0.0127000
       47.3206      0.989800     0.0131000
       48.4297      0.989600     0.0135000
       49.5920      0.989300     0.0138000
       50.8115      0.989100     0.0141000
       52.0924      0.988800     0.0145000
       53.4397      0.988500     0.0148000
       54.6167      0.988100     0.0151000
       56.0995      0.987700     0.0154000
       57.3981      0.987400     0.0158000
       58.7583      0.987000     0.0161000
       60.1845      0.986600     0.0164000
       61.6816      0.986300     0.0168000
       63.2551      0.985900     0.0169000
       64.9110      0.985500     0.0169000
       66.2995      0.985000     0.0169000
       68.1209      0.984100     0.0170000
       69.6517      0.983400     0.0170000
       71.2529      0.982600     0.0170000
       72.9294      0.981600     0.0170000
       74.6867      0.980500     0.0170000
       76.5309      0.979300     0.0170000
       78.4684      0.977800     0.0171000
       80.5065      0.976200     0.0172000
       82.6533      0.974500     0.0174000
       84.3401      0.973000     0.0175000
       86.6993      0.970800     0.0177000
       88.5571      0.969000     0.0179000
       91.1618      0.966100     0.0181000
       93.2180      0.963700     0.0186000
       95.3692      0.961200     0.0192000
       97.6220      0.958400     0.0199000
       99.9839      0.955300     0.0206000
       102.463      0.951800     0.0218000
       105.068      0.948100     0.0234000
       107.809      0.944200     0.0250000
       110.696      0.939900     0.0271000
       112.709      0.936900     0.0287000
       115.869      0.932200     0.0314000
       119.212      0.926900     0.0350000
       121.549      0.923200     0.0377000
       123.980      0.919000     0.0408000
       149.988      0.885000     0.0750000
       159.995      0.892000     0.0860000
       169.999      0.893000     0.0990000
       179.994      0.892000      0.114000
       189.979      0.887000      0.129000
       200.000      0.882000      0.145000
       209.993      0.877000      0.162000
       219.979      0.869000      0.180000
       229.976      0.860000      0.198000
       239.992      0.881000      0.217000
       250.010      0.872000      0.157000
       259.971      0.862000      0.166000
       269.991      0.850000      0.180000
       279.991      0.838000      0.194000
       290.012      0.826000      0.210000
       299.976      0.810000      0.227000
       309.950      0.794000      0.249000
       319.948      0.779000      0.272000
       329.997      0.762000      0.297000
       339.951      0.742000      0.322000
       350.028      0.722000      0.350000
       359.988      0.696000      0.379000
       369.979      0.674000      0.412000
       379.957      0.663000      0.447000
       389.997      0.675000      0.502000
       399.935      0.687000      0.551000
       409.987      0.699000      0.581000
       419.986      0.709000      0.573000
       430.038      0.718000      0.654000
       439.957      0.722000      0.579000
       450.018      0.722000      0.605000
       460.037      0.719000      0.622000
       469.977      0.717000      0.637000
       479.985      0.714000      0.656000
       490.040      0.712000      0.679000
       499.919      0.709000      0.718000
       509.996      0.709000      0.766000
       520.050      0.711000      0.797000
       530.056      0.713000      0.826000
       539.983      0.720000      0.845000
       550.044      0.729000      0.867000
       559.982      0.744000      0.887000
       570.023      0.763000      0.905000
       579.888      0.792000      0.924000
       590.100      0.812000      0.935000
       600.097      0.835000      0.938000
       609.838      0.862000      0.937000
       619.900      0.887000      0.930000
       629.980      0.914000      0.924000
       640.062      0.937000      0.915000
       650.131      0.957000      0.900000
       659.819      0.975000      0.884000
       669.800      0.993000      0.869000
       680.088       1.01000      0.856000
       689.928       1.02000      0.837000
       700.057       1.03000      0.826000
       719.977       1.04000      0.809000
       740.179       1.05000      0.817000
       760.147       1.06000      0.835000
       779.748       1.07000      0.850000
       799.871       1.08000      0.866000
       819.974       1.09000      0.878000
       839.973       1.10000      0.891000
       859.778       1.12000      0.899000
       879.915       1.14000      0.903000
       899.710       1.16000      0.912000
       919.733       1.18000      0.919000
       939.955       1.20000      0.930000
       959.598       1.19000      0.942000
       980.079       1.17000      0.957000
       999.839       1.19000      0.981000
       1019.57       1.22000       1.01000
       1040.10       1.22000       1.02000
       1059.66       1.23000       1.04000
       1079.97       1.24000       1.05000
       1100.09       1.24000       1.07000
       1119.96       1.25000       1.09000
       1139.52       1.27000       1.11000
       1159.78       1.28000       1.13000
       1179.64       1.30000       1.15000
       1200.19       1.32000       1.17000
       1220.28       1.35000       1.18000
       1239.92       1.37000       1.18000
       1259.96       1.40000       1.17000
       1279.99       1.42000       1.17000
       1299.99       1.43000       1.16000
       1319.92       1.43000       1.15000
       1339.89       1.43000       1.15000
       1359.88       1.43000       1.14000
       1380.01       1.43000       1.14000
       1399.95       1.45000       1.15000
       1420.00       1.46000       1.15000
       1439.95       1.46000       1.15000
       1459.96       1.47000       1.15000
       1480.00       1.47000       1.15000
       1499.88       1.47000       1.15000
       1549.94       1.46000       1.16000
       1599.95       1.46000       1.22000
       1649.99       1.48000       1.21000
       1699.99       1.49000       1.22000
       1749.89       1.46000       1.23000
       1799.94       1.42000       1.23000
       1849.90       1.38000       1.24000
       1899.79       1.34000       1.26000
       1949.98       1.30000       1.29000
       2000.00       1.24000       1.34000
       2000.00       1.39000       1.35000
       2032.46       1.38000       1.37000
       2049.93       1.19000       1.40000
       2066.33       1.38000       1.40000
       2101.36       1.37000       1.43000
       2137.59       1.36000       1.47000
       2213.93       1.36000       1.54000
       2295.93       1.36000       1.61000
       2384.23       1.36000       1.67000
       2479.60       1.36000       1.76000
       2582.92       1.38000       1.85000
       2695.22       1.39000       1.95000
       2817.73       1.43000       2.04000
       2951.90       1.45000       2.14000
       3099.50       1.49000       2.25000
       3178.97       1.51000       2.32000
       3262.63       1.53000       2.37000
       3350.81       1.56000       2.42000
       3443.89       1.58000       2.48000
       3542.29       1.60000       2.55000
       3646.47       1.62000       2.62000
       3756.97       1.65000       2.69000
       3874.38       1.68000       2.76000
       3999.35       1.72000       2.84000
       4132.67       1.75000       2.92000
       4275.17       1.79000       3.01000
       4427.86       1.83000       3.10000
       4591.85       1.87000       3.20000
       4768.46       1.91000       3.30000
       4959.20       1.96000       3.42000
       5165.83       2.03000       3.54000
       5390.44       2.10000       3.67000
       5635.45       2.17000       3.77000
       5903.81       2.23000       3.92000
       6199.00       2.30000       4.07000
       6525.26       2.38000       4.26000
       6887.78       2.51000       4.43000
       7292.94       2.63000       4.63000
       7748.75       2.76000       4.84000
       8265.33       2.92000       5.07000
       8855.71       3.10000       5.32000
       9536.92       3.29000       5.61000
       10331.7       3.55000       5.92000
       10780.9       3.70000       6.08000
       11270.9       3.86000       6.24000
       11807.6       4.03000       6.44000
       12398.0       4.25000       6.62000
       13050.5       4.50000       6.77000
       13775.6       4.77000       6.91000
       14088.6       4.91000       6.95000
       14585.9       5.05000       6.98000
       15119.5       5.17000       7.01000
       15497.5       5.31000       7.04000
       16101.3       5.44000       7.04000
       16530.7       5.57000       7.02000
       16983.6       5.67000       6.95000
       17711.4       5.71000       6.83000
       18232.4       5.66000       6.73000
       19073.8       5.52000       6.66000
       19679.4       5.34000       6.70000
       20663.3       5.13000       6.75000
       21750.9       4.86000       6.89000
       22541.8       4.58000       7.14000
       23842.3       4.30000       7.40000
       24796.0       3.91000       7.71000
       26378.7       3.36000       8.40000
       27551.1       3.03000       9.31000
       28832.6       2.92000       10.3000
       30995.0       2.81000       11.4000
       32626.3       3.03000       12.5000
       35422.9       3.28000       13.7000
       38743.8       3.57000       14.9000
       41326.7       3.92000       16.2000
       44278.6       4.24000       17.7000
       49592.0       4.70000       19.4000
       56354.5       5.24000       21.5000
       61990.0       5.90000       24.0000
       72929.4       6.78000       27.2000
       82653.3       8.18000       31.2000
       95369.2       9.91000       36.7000
       123980.       13.2000       44.7000
