;  Optical constants for Rh
; 
;   taken from:
;
;   'Handbook of Optical Constants of Solids', Ed. by Edward D. Palik,
;   Academic Press, Inc., 1985.
;   
;    Lambda (A)            n            k
;-----------------------------------------
       6.19900      0.999512   7.50000e-05
       6.35143      0.999486   8.16000e-05
       6.50814      0.999459   8.87000e-05
       6.66559      0.999432   9.63000e-05
       6.83085      0.999402   0.000105000
       6.99661      0.999372   0.000114000
       7.16647      0.999341   0.000124000
       7.34479      0.999307   0.000134000
       7.52306      0.999272   0.000146000
       7.70541      0.999236   0.000158000
       7.89682      0.999198   0.000171000
       8.08741      0.999158   0.000186000
       8.28743      0.999117   0.000202000
       8.49178      0.999073   0.000219000
       8.69425      0.999029   0.000236000
       8.90661      0.998980   0.000256000
       9.12960      0.998930   0.000278000
       9.34993      0.998880   0.000300000
       9.58114      0.998830   0.000325000
       9.81631      0.998770   0.000352000
       10.0552      0.998710   0.000381000
       10.2973      0.998650   0.000413000
       10.5515      0.998590   0.000447000
       10.8091      0.998520   0.000484000
       11.0795      0.998450   0.000525000
       11.3431      0.998390   0.000567000
       11.6195      0.998310   0.000614000
       11.9097      0.998240   0.000666000
       12.2028      0.998160   0.000721000
       12.4980      0.998080   0.000779000
       12.8079      0.998000   0.000842000
       13.1196      0.997920   0.000910000
       13.4323      0.997830   0.000981000
       13.7603      0.997740    0.00106000
       14.1047      0.997650    0.00114000
       14.4499      0.997560    0.00123000
       14.7947      0.997470    0.00133000
       15.1565      0.997380    0.00143000
       15.5363      0.997280    0.00154000
       15.9153      0.997180    0.00166000
       16.3132      0.997090    0.00179000
       16.7314      0.997000    0.00193000
       17.1007      0.996910    0.00207000
       17.5361      0.996820    0.00223000
       17.9681      0.996740    0.00239000
       18.3947      0.996660    0.00255000
       18.8419      0.996580    0.00274000
       19.3115      0.996540    0.00296000
       19.7735      0.996520    0.00313000
       20.2582      0.996500    0.00329000
       20.7672      0.996450    0.00346000
       21.2659      0.996410    0.00363000
       21.7891      0.996360    0.00382000
       22.3387      0.996320    0.00405000
       22.8745      0.996310    0.00427000
       23.4367      0.996340    0.00451000
       24.0271      0.996390    0.00472000
       24.5992      0.996430    0.00490000
       25.1992      0.996480    0.00509000
       25.8292      0.996540    0.00530000
       26.4350      0.996610    0.00550000
       27.0699      0.996720    0.00572000
       27.7360      0.996920    0.00601000
       28.4358      0.997210    0.00607000
       29.1033      0.997440    0.00612000
       29.8747      0.997730    0.00618000
       30.5369      0.998080    0.00623000
       31.3081      0.998630    0.00597000
       32.1192      0.998870    0.00530000
       32.8859      0.998820    0.00475000
       33.6902      0.998670    0.00425000
       34.5348      0.998400    0.00379000
       35.3219      0.998080    0.00341000
       36.2515      0.997650    0.00302000
       37.1198      0.997200    0.00271000
       38.0307      0.996690    0.00242000
       38.9874      0.996110    0.00216000
       39.8650      0.995540    0.00194000
       40.9175      0.994730    0.00172000
       41.8851      0.994000    0.00177000
       42.8997      0.993290    0.00187000
       43.9645      0.992610    0.00198000
       45.0836      0.991950    0.00209000
       46.0892      0.991370    0.00220000
       47.3206      0.990660    0.00233000
       48.4297      0.990020    0.00245000
       49.5920      0.989400    0.00259000
       50.8115      0.988700    0.00273000
       52.0924      0.987900    0.00289000
       53.4397      0.987200    0.00306000
       54.6167      0.986500    0.00321000
       56.0995      0.985700    0.00341000
       57.3981      0.984900    0.00359000
       58.7583      0.984200    0.00375000
       60.1845      0.983400    0.00390000
       61.6816      0.982500    0.00406000
       63.2551      0.981700    0.00423000
       65.2526      0.980800    0.00417000
       66.2995      0.979900    0.00409000
       68.1209      0.978500    0.00398000
       69.6517      0.977300    0.00408000
       71.2529      0.976100    0.00420000
       72.9294      0.974800    0.00432000
       74.6867      0.973400    0.00444000
       76.5309      0.971900    0.00457000
       78.4684      0.970300    0.00471000
       80.5065      0.968600    0.00486000
       82.6533      0.966700    0.00501000
       84.3401      0.965300    0.00514000
       86.6993      0.963200    0.00520000
       88.5571      0.961500    0.00512000
       91.1618      0.958900    0.00502000
       93.2180      0.956700    0.00493000
       95.3692      0.954300    0.00485000
       97.6220      0.951700    0.00477000
       99.9839      0.948700    0.00469000
       102.463      0.945500    0.00461000
       105.068      0.941900    0.00452000
       107.809      0.937900    0.00444000
       110.696      0.933300    0.00436000
       112.709      0.930000    0.00439000
       115.869      0.924300    0.00443000
       119.212      0.917400    0.00473000
       121.549      0.912400    0.00559000
       123.980      0.907200    0.00662000
       149.988      0.852000     0.0600000
       159.995      0.852000      0.112000
       169.999      0.853000      0.140000
       179.994      0.854000      0.158000
       189.979      0.857000      0.172000
       200.000      0.865000      0.183000
       209.993      0.875000      0.190000
       219.979      0.888000      0.195000
       229.976      0.900000      0.199000
       239.992      0.910000      0.203000
       250.010      0.915000      0.205000
       259.971      0.915000      0.208000
       269.991      0.907000      0.153000
       279.991      0.890000      0.162000
       290.012      0.863000      0.177000
       299.976      0.838000      0.194000
       309.950      0.808000      0.212000
       319.948      0.779000      0.237000
       329.997      0.753000      0.260000
       339.951      0.739000      0.285000
       350.028      0.731000      0.312000
       359.988      0.727000      0.337000
       369.979      0.725000      0.360000
       379.957      0.727000      0.390000
       389.997      0.729000      0.416000
       399.935      0.732000      0.445000
       409.987      0.735000      0.468000
       419.986      0.737000      0.488000
       430.038      0.739000      0.511000
       439.957      0.739000      0.536000
       450.018      0.739000      0.560000
       460.037      0.738000      0.580000
       469.977      0.733000      0.603000
       479.985      0.728000      0.627000
       490.040      0.727000      0.645000
       499.919      0.732000      0.673000
       509.996      0.742000      0.696000
       520.050      0.757000      0.720000
       530.056      0.780000      0.743000
       539.983      0.795000      0.771000
       550.044      0.807000      0.798000
       559.982      0.815000      0.832000
       570.023      0.821000      0.821000
       579.888      0.823000      0.893000
       590.100      0.832000      0.925000
       600.097      0.875000      0.942000
       609.838      0.926000      0.949000
       619.900      0.987000      0.950000
       629.980       1.02000      0.948000
       640.062       1.03000      0.938000
       650.131       1.04000      0.913000
       659.819       1.05000      0.877000
       669.800       1.06000      0.851000
       680.088       1.06000      0.834000
       689.928       1.07000      0.820000
       700.057       1.08000      0.812000
       710.080       1.09000      0.805000
       719.977       1.10000      0.803000
       730.153       1.10000      0.802000
       740.179       1.11000      0.802000
       750.030       1.12000      0.802000
       760.147       1.13000      0.802000
       770.062       1.14000      0.802000
       779.748       1.15000      0.802000
       790.185       1.15000      0.802000
       799.871       1.17000      0.802000
       809.797       1.17000      0.802000
       819.974       1.18000      0.802000
       839.973       1.20000      0.801000
       849.760       1.21000      0.800000
       859.778       1.21000      0.799000
       870.035       1.22000      0.798000
       879.915       1.23000      0.796000
       890.022       1.24000      0.793000
       899.710       1.24000      0.791000
       910.279       1.25000      0.788000
       919.733       1.26000      0.787000
       930.083       1.26000      0.784000
       939.955       1.26000      0.782000
       950.038       1.27000      0.778000
       959.598       1.27000      0.773000
       970.110       1.27000      0.769000
       980.079       1.27000      0.764000
       990.256       1.27000      0.758000
       999.839       1.27000      0.755000
       1049.79       1.26000      0.730000
       1100.09       1.24000      0.707000
       1150.09       1.22000      0.682000
       1200.19       1.18000      0.655000
       1249.92       1.11000      0.638000
       1299.99       1.03000      0.638000
       1349.96      0.953000      0.675000
       1399.95      0.880000      0.750000
       1449.89      0.820000      0.843000
       1499.88      0.766000      0.940000
       1549.94      0.720000       1.03000
       1599.95      0.691000       1.12000
       1649.99      0.681000       1.22000
       1699.99      0.677000       1.30000
       1749.89      0.675000       1.38000
       1799.94      0.672000       1.45000
       1849.90      0.672000       1.51000
       1899.79      0.671000       1.57000
       1949.98      0.672000       1.63000
       2000.00      0.675000       1.69000
       2066.33      0.760000       1.93000
       2137.59      0.790000       2.00000
       2213.93      0.800000       2.06000
       2295.93      0.800000       2.14000
       2384.23      0.790000       2.23000
       2479.60      0.790000       2.34000
       2530.20      0.790000       2.39000
       2582.92      0.790000       2.46000
       2637.87      0.790000       2.52000
       2695.22      0.780000       2.60000
       2755.11      0.790000       2.68000
       2817.73      0.800000       2.76000
       2883.26      0.830000       2.85000
       2951.90      0.840000       2.94000
       3023.90      0.840000       3.03000
       3099.50      0.860000       3.12000
       3178.97      0.880000       3.23000
       3262.63      0.910000       3.34000
       3350.81      0.950000       3.45000
       3443.89      0.990000       3.58000
       3542.29       1.04000       3.71000
       3646.47       1.11000       3.84000
       3756.97       1.20000       3.97000
       3874.38       1.30000       4.09000
       3999.35       1.41000       4.20000
       4132.67       1.53000       4.29000
       4275.17       1.63000       4.36000
       4591.85       1.80000       4.49000
       4768.46       1.85000       4.55000
       4959.20       1.88000       4.65000
       5165.83       1.90000       4.78000
       5390.44       1.94000       4.94000
       5635.45       2.00000       5.11000
       5903.81       2.05000       5.30000
       6199.00       2.12000       5.51000
       6525.26       2.20000       5.76000
       6887.78       2.30000       6.02000
       7292.94       2.42000       6.33000
       7748.75       2.60000       6.64000
       8265.33       2.78000       6.97000
       8855.71       3.01000       7.31000
       9536.92       3.26000       7.63000
       9918.40       3.38000       7.80000
       10331.7       3.51000       7.94000
       10780.9       3.60000       8.09000
       11270.9       3.67000       8.26000
       11807.6       3.72000       8.44000
       12398.0       3.71000       8.67000
       13050.5       3.69000       8.94000
       13775.6       3.62000       9.36000
       14585.9       3.64000       9.81000
       15497.5       3.63000       10.3000
       16530.7       3.63000       11.0000
       17711.4       3.67000       11.7000
       19073.8       3.77000       12.6000
       20663.3       3.87000       13.5000
       22541.8       3.97000       14.7000
       24796.0       4.20000       16.1000
       27551.1       4.45000       17.7000
       30995.0       4.74000       19.8000
       35422.9       5.22000       22.4000
       41326.7       5.85000       25.9000
       49592.0       7.01000       30.7000
       61990.0       8.66000       37.5000
       82653.3       11.5000       48.6000
       123980.       18.5000       69.4000
