;  Optical constants for Se, ordinary ray
; 
;   taken from:
;
;   'Handbook of Optical Constants of Solids II', Ed. by Edward D. Palik,
;   Academic Press, Inc., 1991.
;   
;    Lambda (A)            n            k
;-----------------------------------------
       1.24328      0.999992   1.90000e-07
       1.32869      0.999991   2.47000e-07
       1.39163      0.999990   2.94000e-07
       1.45739      0.999989   3.50000e-07
       1.52628      0.999988   4.17000e-07
       1.59850      0.999987   4.96000e-07
       1.67405      0.999986   5.90000e-07
       1.75311      0.999984   7.02000e-07
       1.83620      0.999983   8.34000e-07
       1.92306      0.999981   9.92000e-07
       2.01397      0.999979   1.18000e-06
       2.10922      0.999977   1.41000e-06
       2.20880      0.999975   1.67000e-06
       2.31349      0.999972   1.98000e-06
       2.42290      0.999969   2.35000e-06
       2.53745      0.999966   2.79000e-06
       2.65766      0.999963   3.32000e-06
       2.78294      0.999959   3.94000e-06
       2.91443      0.999955   4.67000e-06
       3.05219      0.999951   5.54000e-06
       3.19701      0.999946   6.57000e-06
       3.34810      0.999941   7.79000e-06
       3.50622      0.999935   9.23000e-06
       3.67239      0.999929   1.09000e-05
       3.72984      0.999922   1.29000e-05
       4.02794      0.999915   1.53000e-05
       4.21844      0.999907   1.81000e-05
       4.41682      0.999898   2.14000e-05
       4.62612      0.999889   2.53000e-05
       4.84486      0.999879   2.98000e-05
       5.07491      0.999869   3.52000e-05
       5.31419      0.999857   4.14000e-05
       5.56463      0.999846   4.88000e-05
       5.82887      0.999834   5.73000e-05
       6.10438      0.999821   6.73000e-05
       6.39402      0.999809   7.87000e-05
       6.69438      0.999798   9.22000e-05
       7.01244      0.999789   0.000108000
       7.17477      0.999787   0.000117000
       7.34479      0.999788   0.000126000
       7.51394      0.999817   0.000120000
       7.69107      0.999779   0.000129000
       7.87175      0.999778   0.000139000
       8.05588      0.999781   0.000150000
       8.24335      0.999791   0.000162000
       8.43401      0.999818   0.000174000
       8.63371      0.999934   0.000188000
       8.83678      0.999811   3.29000e-05
       9.04303      0.999767   3.55000e-05
       9.25224      0.999736   3.84000e-05
       9.68594      0.999684   4.49000e-05
       10.1457      0.999637   5.25000e-05
       10.6238      0.999588   6.13000e-05
       11.1293      0.999538   7.17000e-05
       11.6523      0.999485   8.38000e-05
       12.2028      0.999427   9.76000e-05
       12.7854      0.999366   0.000114000
       13.3902      0.999299   0.000134000
       14.0233      0.999226   0.000155000
       14.6861      0.999148   0.000181000
       15.3821      0.999063   0.000210000
       16.1076      0.998970   0.000244000
       16.8703      0.998870   0.000284000
       17.6685      0.998760   0.000328000
       18.5045      0.998640   0.000379000
       19.3779      0.998520   0.000441000
       20.2946      0.998380   0.000510000
       21.2549      0.998230   0.000589000
       22.2585      0.998080   0.000680000
       23.3133      0.997910   0.000783000
       24.4151      0.997730   0.000899000
       25.5682      0.997530    0.00103000
       26.7775      0.997330    0.00119000
       28.0434      0.997110    0.00136000
       29.3722      0.996890    0.00156000
       30.7643      0.996650    0.00178000
       32.2193      0.996420    0.00202000
       33.7361      0.996160    0.00229000
       35.3320      0.995890    0.00259000
       37.0090      0.995610    0.00292000
       38.7559      0.995330    0.00330000
       40.5827      0.995050    0.00374000
       42.5026      0.994780    0.00422000
       44.5171      0.994550    0.00476000
       46.6266      0.994370    0.00527000
       48.8302      0.994150    0.00581000
       51.1258      0.993920    0.00640000
       53.5551      0.993710    0.00705000
       56.0742      0.993530    0.00776000
       58.7305      0.993430    0.00854000
       61.5285      0.993390    0.00930000
       64.4387      0.993470     0.0101000
       67.4905      0.993540     0.0108000
       70.6439      0.993590     0.0115000
       74.0179      0.993730     0.0122000
       77.4875      0.993850     0.0128000
       81.1919      0.993970     0.0135000
       85.0343      0.994180     0.0141000
       89.0022      0.994350     0.0146000
       93.2180      0.994640     0.0151000
       97.6220      0.994810     0.0155000
       102.294      0.994930     0.0158000
       107.064      0.995150     0.0160000
       112.199      0.995170     0.0161000
       117.517      0.995130     0.0161000
       122.996      0.995220     0.0159000
       128.851      0.994860     0.0153000
       134.937      0.994270     0.0148000
       139.727      0.993510     0.0140000
       148.000      0.992180     0.0131000
       154.994      0.990420     0.0124000
       162.341      0.988430     0.0118000
       170.022      0.986180     0.0112000
       178.055      0.983580     0.0104000
       186.464      0.980400    0.00968000
       190.827      0.978510    0.00935000
       195.275      0.976360    0.00933000
       199.839      0.974190    0.00966000
       204.520      0.972940     0.0106000
       209.284      0.972520     0.0107000
       214.202      0.972570    0.00939000
       219.201      0.970100    0.00525000
       224.317      0.965100    0.00406000
       229.550      0.960890    0.00410000
       234.944      0.957140    0.00423000
       240.411      0.953390    0.00442000
       413.267      0.790000      0.140000
       427.517      0.790000      0.160000
       442.786      0.800000      0.190000
       459.185      0.780000      0.230000
       476.846      0.780000      0.260000
       495.920      0.770000      0.290000
       516.583      0.780000      0.320000
       539.043      0.790000      0.350000
       563.545      0.780000      0.390000
       590.381      0.760000      0.430000
       619.900      0.730000      0.480000
       652.526      0.650000      0.570000
       688.778      0.610000      0.650000
       729.294      0.660000      0.760000
       774.875      0.680000      0.960000
       826.533      0.780000       1.10000
       855.034      0.800000       1.18000
       885.571      0.900000       1.30000
       885.571      0.980000      0.920000
       918.370       1.04000       1.40000
       918.370       1.06000      0.970000
       953.692       1.23000       1.47000
       953.692       1.13000       1.00000
       991.840       1.45000       1.48000
       991.840       1.19000       1.01000
       1033.17       1.66000       1.25000
       1033.17       1.25000       1.02000
       1078.09       1.71000       1.08000
       1078.09       1.33000       1.01000
       1127.09       1.69000       1.02000
       1127.09       1.36000       1.00000
       1158.69       1.37000       1.04000
       1180.76       1.71000      0.990000
       1180.76       1.43000       1.06000
       1239.80       1.72000      0.950000
       1239.80       1.56000       1.03000
       1278.14       1.57000      0.970000
       1305.05       1.57000      0.970000
       1347.61       1.58000       1.00000
       1377.56       1.66000       1.02000
       1425.06       1.75000       1.02000
       1458.59       1.82000      0.920000
       1502.79       1.84000      0.800000
       1549.75       1.81000      0.690000
       1599.74       1.73000      0.690000
       1653.07       1.71000      0.670000
       1710.07       1.69000      0.640000
       1771.14       1.62000      0.610000
       1836.74       1.57000      0.620000
       1907.38       1.51000      0.630000
       1983.68       1.41000      0.670000
       2066.33       1.32000      0.730000
       2156.17       1.28000      0.870000
       2254.18       1.22000       1.03000
       2361.52       1.21000       1.25000
       2479.60       1.25000       1.50000
       2610.11       1.41000       1.75000
       2755.11       1.75000       1.94000
       2817.73       1.89000       1.72000
       2917.18       2.01000       2.07000
       2951.90       2.18000       1.83000
       3099.50       2.67000       1.99000
       3099.50       2.51000       1.81000
       3262.63       2.84000       1.66000
       3443.89       3.06000       1.47000
       3646.47       3.22000       1.24000
       3874.38       3.35000       1.01000
       4132.67       3.30000      0.700000
       4427.86       3.12000      0.580000
       4768.46       3.00000      0.530000
       5165.83       2.93000      0.610000
       5635.45       3.07000      0.730000
       6199.00       3.38000      0.650000
       6887.78       3.32000      0.110000
       9998.39       2.81600   2.31000e-05
       11109.3       2.77200   2.48000e-05
       12499.2       2.73900   2.69000e-05
       14285.1       2.71300   2.96000e-05
       16666.2       2.69200   3.32000e-05
       20000.0       2.67500   3.82000e-05
       25001.0       2.65400   4.58000e-05
       33328.0       2.65200   5.44000e-05
       39993.5       2.64800   5.73000e-05
       49991.9       2.64500   5.97000e-05
       66655.9       2.64200   6.90000e-05
       79987.1       2.64100       0.00000
       99983.9       2.63900   8.51000e-05
       111093.       2.63800   8.84000e-05
       124992.       2.63700   8.95000e-05
       142851.       2.63600   0.000142000
       166662.       2.63500   0.000159000
       200000.       2.63200    0.00207000
       250010.       2.62700    0.00358000
       333280.       2.61300     0.0154000
       357085.       2.60700     0.0168000
       384553.       2.59800     0.0116000
       416599.       2.57600    0.00995000
       425463.       2.56800       0.00000
       434712.       2.60000       0.00000
       444373.       2.61000       0.00000
       454472.       2.60000     0.0101000
       476114.       2.58200       0.00000
       499919.       2.55000     0.0239000
       512738.       2.55500    0.00796000
       526231.       2.54300    0.00966000
       540453.       2.53000     0.0120000
       555466.       2.50200     0.0442000
       571336.       2.49100     0.0201000
       588140.       2.46200     0.0276000
       605963.       2.42200     0.0402000
       624899.       2.35600     0.0746000
       645057.       2.27000      0.114000
       666559.       2.11100      0.255000
       689544.       1.96400      0.771000
       714170.       2.95900       1.33000
       740621.       3.34200      0.466000
       769107.       3.14000      0.175000
       799871.       3.01300     0.0871000
       833199.       2.93200     0.0325000
       908944.       2.85400     0.0239000
       999839.       2.80500     0.0231000
   1.11093e+06       2.78300     0.0159000
   1.24992e+06       2.76100     0.0129000
   1.42851e+06       2.75300     0.0105000
   1.66662e+06       2.74000    0.00783000
   2.00000e+06       2.73700    0.00812000
   2.50010e+06       2.72900    0.00597000
   3.33280e+06       2.72900    0.00589000
   4.99919e+06       2.72700    0.00784000
   9.99839e+06       2.72400     0.0143000
