;  Optical constants for oxidized (100) Si wafer
; 
;   taken from:
;
;   D. L. Windt, unpublished (1992)
;   
;    Lambda (A)            n            k
;-----------------------------------------
      100.000      .998465    0.0198546
      105.000      1.00634    0.0155000
      110.000      1.00783    0.0135138
      115.000      1.00546    0.0127617
      120.000      1.00203    0.0128347
      121.000      1.00161    0.0125190
      122.000      1.00154    0.0118093
      123.000      1.00291    0.0101131
      124.000      1.00097   0.00672969
      125.000      .998332   0.00401284
      126.000      .993810   0.00216053
      127.000      .994965   0.00189123
      128.000      .996702   0.00162444
      129.000      .999520   0.00156265
      130.000      .999755   0.00144988
      131.000      .999915   0.00160034
      133.000      .999851   0.00169765
      134.000      .999490   0.00173765
      135.000      .998865   0.00182532
      136.000      .998214   0.00201665
      137.000      .997602   0.00221263
      138.000      .997202   0.00239339
      139.000      .996622   0.00247961
      140.000      .995988   0.00261580
      141.000      .995091   0.00266216
      142.000      .994456   0.00262138
      143.000      .994017   0.00260733
      144.000      .994021   0.00261219
      145.000      .993805   0.00282632
      146.000      .993359   0.00272875
      147.000      .992807   0.00280954
      148.000      .992614   0.00283116
      149.000      .992363   0.00315011
      150.000      .991349   0.00331344
      155.000      .989423   0.00335036
      160.000      .987222   0.00340058
      165.000      .985312   0.00342630
      170.000      .983881   0.00354196
      175.000      .982703   0.00358853
