;  Optical constants for trigonal quartz, ordinary ray
; 
;   taken from:
;
;   'Handbook of Optical Constants of Solids', Ed. by Edward D. Palik,
;   Academic Press, Inc., 1985.
;   
;    Lambda (A)            n            k
;-----------------------------------------
      476.900 0.6285 0.3243
      486.200 0.6432 0.3609
      495.900 0.6517 0.3907
      506.100 0.6591 0.4231
      516.600 0.6723 0.4540
      527.600 0.6862 0.4822
      539.100 0.6998 0.5097
      551.000 0.7138 0.5387
      563.600 0.7304 0.5667
      576.700 0.7470 0.5959
      590.400 0.7664 0.6272
      604.800 0.7900 0.6559
      619.900 0.8131 0.6844
      635.800 0.8371 0.7154
      652.600 0.8642 0.7488
      670.200 0.8949 0.7847
      688.800 0.9289 0.8273
      698.500 0.9499 0.8619
      708.500 0.9894 0.8987
      712.500 1.013 0.9108
      718.700 1.052 0.9236
      729.300 1.118 0.9153
      740.200 1.169 0.8917
      751.400 1.205 0.8599
      762.900 1.224 0.8223
      774.900 1.221 0.7896
      787.200 1.210 0.7848
      799.900 1.202 0.7841
      813.000 1.191 0.7968
      826.600 1.184 0.8265
      837.700 1.187 0.8694
      849.200 1.217 0.9290
      861.000 1.285 0.9724
      867.000 1.335 0.9829
      873.100 1.386 0.9709
      885.600 1.457 0.9187
      898.400 1.484 0.8462
      911.600 1.469 0.7910
      925.200 1.447 0.7761
      939.200 1.430 0.7715
      953.700 1.410 0.7753
      968.600 1.394 0.8017
      983.900 1.390 0.8406
      999.800 1.400 0.8908
      1016.00 1.435 0.9573
      1033.00 1.504 1.015
      1042.00 1.551 1.035
      1051.00 1.602 1.048
      1060.00 1.661 1.056
      1069.00 1.722 1.046
      1078.00 1.782 1.027
      1088.00 1.839 0.9939
      1097.00 1.892 0.9452
      1107.00 1.924 0.8730
      1117.00 1.925 0.7958
      1127.00 1.891 0.7210
      1137.00 1.805 0.6597
      1143.00 1.738 0.6418
      1145.00 1.688 0.6356
      1148.00 1.626 0.6732
      1153.00 1.569 0.7594
      1159.00 1.528 0.8463
      1164.00 1.506 0.9666
      1170.00 1.521 1.114
      1175.00 1.607 1.289
      1181.00 1.769 1.400
      1186.00 1.959 1.454
      1192.00 2.159 1.452
      1196.00 2.289 1.423
      1198.00 2.373 1.378
      1204.00 2.515 1.229
      1210.00 2.590 1.072
      1215.00 2.619 0.9326
      1227.00 2.621 0.7123
      1240.00 2.581 0.5441
      1252.00 2.529 0.4161
      1265.00 2.464 0.3148
      1278.00 2.397 0.2402
      1291.00 2.335 0.17
      1305.00 2.275 0.12
      1319.00 2.222 0.082
      1333.00 2.174 0.056
      1348.00 2.133 0.036
      1362.00 2.095 0.023
      1378.00 2.060 0.013
      1393.00 2.028 7.0E-3
      1409.00 1.999 3.1E-3
      1425.00 1.971 1.0E-3
      1442.00 1.946 2.3E-4
      1459.00 1.922 3.5E-5
      1476.00 1.899 2.7E-6
      1494.00 1.877 0.
      1512.00 1.856  0.
      1531.00 1.838  0.
      1550.00 1.820  0.
      1590.00 1.789  0.
      1631.00 1.761  0.
      1675.00 1.737  0.
      1722.00 1.716  0.
      1771.00 1.698  0.
      1837.00 1.679  0.
      1851.00 1.6775  0.
      1854.67 1.67578  0.
      1935.83 1.65999  0.
      1980.00 1.65087  0.
      2000.60 1.64927  0.
      2025.50 1.64557 0.
      2044.48 1.64288 0.
      2110.70 1.63432 0.
      2144.39 1.63039 0.
      2194.62 1.62497 0.
      2265.03 1.61818 0.
      2310.00 1.61395 0.
      2312.88 1.61401 0.
      2427.96 1.60525 0.
      2503.29 1.60032 0.
      2573.04 1.59622 0.
      2631.55 1.59309 0.
      2748.67 1.58752 0.
      2913.58 1.58098 0.
      3034.12 1.57955 0.
      3122.79 1.57433 0.
      3252.53 1.570915 0.
      3400.00 1.56747 0.
      3403.65 1.56747 0.
      3586.80 1.563915 0.
      3940.00 1.55846 0.
      3968.48 1.55813 0.
      4046.56 1.557156 0.
      4101.74 1.556502 0.
      4340.00 1.55396 0.
      4340.47 1.553963 0.
      4358.34 1.553790 0.
      4678.15 1.551027 0.
      4799.91 1.550118 0.
      4861.33 1.549683 0.
      5080.00 1.54822 0.
      5085.82 1.548229 0.
      5183.62 1.547651 0.
      5338.50 1.546799 0.
      5460.72 1.546174 0.
      5790.66 1.544667 0.
      5875.63 1.544316 0.
      5892.90 1.544246 0.
      5893.00 1.54424 0.
      6278.20 1.542819 0.
      6438.47 1.542288 0.
      6562.78 1.541899 0.
      6678.15 1.541553 0.
      6707.86 1.541466 0.
      7065.20 1.540488 0.
      7281.35 1.539948 0.
      7664.94 1.539071 0.
      7680.00 1.53903 0.
      7947.63 1.538478 0.
      8325.00 1.53773 0.
      8446.70 1.537525 0.
      9914.00 1.53514 0.
      10000.0 1.53503 0.
      10140.6 1.53483 0.
      10830.3 1.53387 0.
      11592.0 1.53283 0.
      12000.0 1.53232 0.
      13000.0 1.53102 0.
      13070.0 1.53090 0.
      13958.0 1.52977 0.
      14000.0 1.52972 0.
      14792.0 1.52865 0.
      15296.1 1.52800 0.
      15414.0 1.52781 0.
      16000.0 1.52703 0.
      16815.0 1.52583 0.
      17614.0 1.52468 0.
      18000.0 1.52413 0.
      19457.0 1.52184 0.
      20531.0 1.52005 0.
      20582.0 1.51998 0.
      23000.0 1.51561 0.
      25000.0 1.51156 0.
      26000.0 1.50986 0.
      30000.0 1.49953 0.
      35000.0 1.48451 0.
      40000.0 1.46617 0.
      42000.0 1.457 0.
      44000.0 1.448 0.
      46000.0 1.437 0.
      48000.0 1.425 0.
      50000.0 1.412 0.
      52000.0 1.398 0.
      54000.0 1.382 0.
      56000.0 1.364 0.
      58000.0 1.343 0.
      60000.0 1.320 2.27E-3
      61000.0 1.307 2.545E-3
      62000.0 1.294 2.862E-3
      63000.0 1.279 3.229E-3
      64000.0 1.263 3.657E-3
      65000.0 1.245 4.160E-3
      66000.0 1.226 4.755E-3
      67000.0 1.206 5.467E-3
      68000.0 1.183 6.328E-3
      69000.0 1.158 7.380E-3
      70000.0 1.130 8.683E-3
      70500.0 1.115 9.455E-3
      71000.0 1.099 1.032E-2
      71500.0 1.083 1.131E-2
      72000.0 1.065 1.243E-2
      72500.0 1.046 1.370E-2
      73000.0 1.025 1.517E-2
      73500.0 1.004 1.687E-2
      74000.0 0.9801 1.885E-2
      74500.0 0.9549 2.117E-2
      75000.0 0.9277 2.391E-2
      75500.0 0.8982 2.717E-2
      76000.0 0.8660 3.108E-2
      76500.0 0.8308 3.583E-2
      77000.0 0.7921 4.163E-2
      77500.0 0.7492 4.883E-2
      78000.0 0.7013 5.788E-2
      78500.0 0.6472 6.949E-2
      79000.0 0.5953 8.487E-2
      79500.0 0.5132 0.1063
      80000.0 0.4276 0.1391
      80500.0 0.3274 0.1962
      81000.0 0.2318 0.2958
      81500.0 0.1728 0.4190
      82000.0 0.1410 0.5380
      82500.0 0.1216 0.6504
      83000.0 0.1088 0.7599
      83500.0 0.1005 0.8699
      84000.0 0.0965 0.9842
      84500.0 0.09826 1.109
      85000.0 0.1136 1.255
      85500.0 0.1913 1.459
      86000.0 0.6590 1.421
      86500.0 0.2427 1.178
      87000.0 0.1309 1.408
      87500.0 0.1115 1.591
      88000.0 0.1102 1.763
      88500.0 0.1167 1.941
      89000.0 0.1290 2.134
      89500.0 0.1478 2.352
      90000.0 0.1757 2.606
      90500.0 0.2178 2.911
      91000.0 0.2846 3.296
      91500.0 0.4006 3.808
      92000.0 0.6330 4.546
      92500.0 1.230 5.733
      93000.0 3.583 7.566
      93500.0 7.929 4.184
      94000.0 6.336 1.331
      94500.0 5.180 0.6460
      95000.0 4.497 0.3920
      95500.0 4.048 0.2685
      96000.0 3.727 0.1982
      96500.0 3.485 0.1539
      97000.0 3.295 0.1240
      97500.0 3.142 0.1027
      98000.0 3.014 8.691E-2
      98500.0 2.907 7.485E-2
      99000.0 2.814 6.540E-2
      99500.0 2.734 5.785E-2
      100000. 2.663 5.170E-2
      100500. 2.600 4.662E-2
      101000. 2.544 4.238E-2
      101500. 2.493 3.879E-2
      102000. 2.447 3.573E-2
      102500. 2.405 3.310E-2
      103000. 2.366 3.083E-2
      103500. 2.330 2.885E-2
      104000. 2.297 2.712E-2
      104500. 2.266 2.560E-2
      105000. 2.237 2.427E-2
      105500. 2.210 2.309E-2
      106000. 2.184 2.205E-2
      106500. 2.159 2.114E-2
      107000. 2.136 2.033E-2
      107500. 2.113 1.962E-2
      108000. 2.092 1.901E-2
      108500. 2.071 1.847E-2
      109000. 2.051 1.802E-2
      109500. 2.032 1.764E-2
      110000. 2.013 1.734E-2
      110500. 1.995 1.710E-2
      111000. 1.977 1.694E-2
      111500. 1.959 1.685E-2
      112000. 1.941 1.683E-2
      112500. 1.924 1.690E-2
      113000. 1.906 1.706E-2
      113500. 1.888 1.730E-2
      114000. 1.870 1.766E-2
      114500. 1.852 1.814E-2
      115000. 1.833 1.877E-2
      115500. 1.814 1.956E-2
      116000. 1.794 2.055E-2
      116500. 1.773 2.180E-2
      117000. 1.751 2.335E-2
      117500. 1.727 2.530E-2
      118000. 1.701 2.775E-2
      118500. 1.672 3.088E-2
      119000. 1.641 3.491E-2
      119500. 1.605 4.021E-2
      120000. 1.564 4.732E-2
      120500. 1.516 5.715E-2
      121000. 1.457 7.123E-2
      121500. 1.384 9.241E-2
      122000. 1.289 0.1265
      122500. 1.162 0.1868
      123000. 0.9858 0.3097
      123500. 0.7844 0.5904
      124000. 0.7289 1.072
      124500. 0.9288 1.655
      125000. 1.587 2.269
      125500. 2.900 2.106
      126000. 3.236 1.105
      126500. 2.956 0.4893
      127000. 2.718 0.2805
      127500. 2.552 0.1823
      128000. 2.433 0.1291
      128500. 2.344 9.703E-2
      129000. 2.275 7.628E-2
      129500. 2.220 6.208E-2
      130000. 2.174 5.194E-2
      130500. 2.136 4.446E-2
      131000. 2.102 3.879E-2
      131500. 2.073 3.441E-2
      132000. 2.047 3.098E-2
      132500. 2.024 2.825E-2
      133000. 2.002 2.607E-2
      133500. 1.983 2.433E-2
      134000. 1.964 2.296E-2
      134500. 1.947 2.189E-2
      135000. 1.930 2.109E-2
      135500. 1.915 2.055E-2
      136000. 1.899 2.026E-2
      136500. 1.884 2.022E-2
      137000. 1.869 2.047E-2
      137500. 1.854 2.107E-2
      138000. 1.839 2.208E-2
      138500. 1.823 2.366E-2
      139000. 1.807 2.601E-2
      139500. 1.789 2.953E-2
      140000. 1.769 3.484E-2
      140500. 1.746 4.311E-2
      141000. 1.719 5.665E-2
      141500. 1.686 8.025E-2
      142000. 1.649 0.1246
      142500. 1.621 0.2119
      143000. 1.670 0.3539
      143500. 1.867 0.4101
      144000. 1.999 0.2820
      144500. 1.998 0.1644
      145000. 1.964 0.1016
      145500. 1.931 6.871E-2
      146000. 1.903 5.016E-2
      146500. 1.881 3.885E-2
      147000. 1.861 3.150E-2
      147500. 1.845 2.646E-2
      148000. 1.831 2.287E-2
      148500. 1.818 2.022E-2
      149000. 1.806 1.821E-2
      149500. 1.795 1.664E-2
      150000. 1.785 1.540E-2
      150500. 1.776 1.439E-2
      151000. 1.767 1.358E-2
      151500. 1.758 1.290E-2
      152000. 1.750 1.234E-2
      152500. 1.742 1.186E-2
      153000. 1.734 1.146E-2
      153500. 1.726 1.112E-2
      154000. 1.719 1.083E-2
      154500. 1.711 1.059E-2
      155000. 1.704 1.037E-2
      155500. 1.697 1.019E-2
      156000. 1.690 1.004E-2
      156500. 1.683 9.912E-3
      157000. 1.676 9.805E-3
      157500. 1.669 9.716E-3
      158000. 1.663 9.644E-3
      158500. 1.656 9.588E-3
      159000. 1.649 9.546E-3
      159500. 1.642 9.518E-3
      160000. 1.635 9.501E-3
      160500. 1.629 9.497E-3
      161000. 1.622 9.503E-3
      161500. 1.615 9.520E-3
      162000. 1.608 9.547E-3
      162500. 1.601 9.583E-3
      163000. 1.594 9.629E-3
      163500. 1.587 9.683E-3
      164000. 1.580 9.747E-3
      164500. 1.573 9.820E-3
      165000. 1.566 9.901E-3
      165500. 1.559 9.991E-3
      166000. 1.551 1.009E-2
      166500. 1.544 1.020E-2
      167000. 1.537 1.031E-2
      167500. 1.529 1.044E-2
      168000. 1.521 1.058E-2
      168500. 1.514 1.072E-2
      169000. 1.506 1.087E-2
      169500. 1.498 1.104E-2
      170000. 1.490 1.121E-2
      170500. 1.481 1.140E-2
      171000. 1.473 1.159E-2
      171500. 1.464 1.180E-2
      172000. 1.456 1.202E-2
      172500. 1.447 1.225E-2
      173000. 1.438 1.249E-2
      173500. 1.429 1.275E-2
      174000. 1.420 1.302E-2
      174500. 1.410 1.331E-2
      175000. 1.400 1.361E-2
      175500. 1.390 1.393E-2
      176000. 1.380 1.427E-2
      176500. 1.370 1.462E-2
      177000. 1.359 1.500E-2
      177500. 1.348 1.540E-2
      178000. 1.337 1.581E-2
      178500. 1.326 1.626E-2
      179000. 1.314 1.672E-2
      179500. 1.302 1.722E-2
      180000. 1.289 1.774E-2
      180500. 1.277 1.830E-2
      181000. 1.263 1.889E-2
      181500. 1.250 1.951E-2
      182000. 1.236 2.018E-2
      182500. 1.221 2.089E-2
      183000. 1.207 2.165E-2
      183500. 1.191 2.245E-2
      184000. 1.175 2.332E-2
      184500. 1.159 2.424E-2
      185000. 1.142 2.524E-2
      185500. 1.124 2.631E-2
      186000. 1.105 2.746E-2
      186500. 1.086 2.871E-2
      187000. 1.066 3.006E-2
      187500. 1.045 3.153E-2
      188000. 1.023 3.313E-2
      188500. 1.000 3.489E-2
      189000. 0.9761 3.682E-2
      189500. 0.9507 3.896E-2
      190000. 0.9239 4.134E-2
      190500. 0.8955 4.401E-2
      191000. 0.8654 4.701E-2
      191500. 0.8333 5.044E-2
      192000. 0.7989 5.438E-2
      192500. 0.7620 5.897E-2
      193000. 0.7221 6.441E-2
      193500. 0.6786 7.099E-2
      194000. 0.6308 7.915E-2
      194500. 0.5777 8.963E-2
      195000. 0.5180 0.1037
      195500. 0.4501 0.1240
      196000. 0.3723 0.1558
      196500. 0.2879 0.2097
      197000. 0.2149 0.2924
      197500. 0.1696 0.3862
      198000. 0.1439 0.4746
      198500. 0.1284 0.5554
      199000. 0.1183 0.6300
      199500. 0.1113 0.69998
      200000. 0.1065 0.7665
      200500. 0.1030 0.8304
      201000. 0.1006 0.8924
      201500. 9.894E-2 0.9530
      202000. 9.794E-2 1.013
      202500. 9.747E-2 1.072
      203000. 9.746E-2 1.130
      203500. 9.786E-2 1.189
      204000. 9.863E-2 1.247
      204500. 9.976E-2 1.306
      205000. 0.1012 1.365
      205500. 0.1031 1.425
      206000. 0.1052 1.486
      206500. 0.1078 1.548
      207000. 0.1107 1.611
      207500. 0.1140 1.676
      208000. 0.1177 1.742
      208500. 0.1219 1.811
      209000. 0.1266 1.881
      209500. 0.1319 1.954
      210000. 0.1379 2.030
      210500. 0.1446 2.108
      211000. 0.1521 2.191
      211500. 0.1606 2.277
      212000. 0.1703 2.368
      212500. 0.1812 2.464
      213000. 0.1937 2.565
      213500. 0.2081 2.673
      214000. 0.2248 2.789
      214500. 0.2442 2.914
      215000. 0.2670 3.048
      215500. 0.2941 3.195
      216000. 0.3267 3.356
      216500. 0.3664 3.533
      217000. 0.4154 3.731
      217500. 0.4773 3.955
      218000. 0.5569 4.209
      218500. 0.6622 4.502
      219000. 0.8059 4.846
      219500. 1.010 5.253
      220000. 1.314 5.742
      220500. 1.793 6.326
      221000. 2.595 6.983
      221500. 3.966 7.519
      222000. 5.976 7.259
      222500. 7.562 5.603
      223000. 7.753 3.682
      223500. 7.250 2.412
      224000. 6.658 1.671
      224500. 6.139 1.225
      225000. 5.709 0.9407
      225500. 5.354 0.7490
      226000. 5.058 0.6136
      226500. 4.807 0.5142
      227000. 4.593 0.4390
      227500. 4.406 0.3806
      228000. 4.243 0.3343
      228500. 4.098 0.2969
      229000. 3.968 0.2663
      229500. 3.851 0.2408
      230000. 3.745 0.2195
      230500. 3.648 0.2015
      231000. 3.558 0.1861
      231500. 3.475 0.1728
      232000. 3.398 0.1614
      232500. 3.325 0.1515
      233000. 3.257 0.1429
      233500. 3.192 0.1354
      234000. 3.131 0.1289
      234500. 3.072 0.1233
      235000. 3.015 0.1184
      235500. 2.961 0.1142
      236000. 2.908 0.1106
      236500. 2.857 0.1076
      237000. 2.806 0.1052
      237500. 2.757 0.1033
      238000. 2.708 0.1020
      238500. 2.659 0.1012
      239000. 2.610 0.1009
      239500. 2.651 0.1012
      240000. 2.512 0.1020
      240500. 2.461 0.1036
      241000. 2.409 0.1059
      241500. 2.355 0.1090
      242000. 2.300 0.1131
      242500. 2.241 0.1184
      243000. 2.179 0.1252
      243500. 2.112 0.1336
      244000. 2.041 0.1444
      244500. 1.962 0.1581
      245000. 1.876 0.1757
      245500. 1.779 0.1988
      246000. 1.668 0.2298
      246500. 1.540 0.2730
      247000. 1.390 0.3360
      247500. 1.214 0.4336
      248000. 1.015 0.5932
      248500. 0.8305 0.8431
      249000. 0.7156 1.161
      249500. 0.6717 1.502
      250000. 0.6787 1.853
      250500. 0.7284 2.224
      251000. 0.8260 2.630
      251500. 0.9915 3.087
      252000. 1.270 3.618
      252500. 1.759 4.233
      253000. 2.661 4.854
      253500. 4.194 5.028
      254000. 5.689 3.971
      254500. 5.982 2.469
      255000. 5.633 1.515
      255500. 5.220 0.9975
      256000. 4.872 0.7043
      256500. 4.595 0.5253
      257000. 4.373 0.4086
      257500. 4.193 0.3284
      258000. 4.044 0.2708
      258500. 3.919 0.2280
      259000. 3.812 0.1954
      259500. 3.720 0.1698
      260000. 3.639 0.1494
      260500. 3.568 0.1328
      261000. 3.505 0.1191
      261500. 3.448 0.1077
      262000. 3.397 9.810E-2
      262500. 3.350 8.988E-2
      263000. 3.308 8.280E-2
      263500. 3.269 7.666E-2
      264000. 3.233 7.129E-2
      264500. 3.199 6.656E-2
      265000. 3.168 6.237E-2
      265500. 3.140 5.865E-2
      266000. 3.113 5.531E-2
      266500. 3.087 5.230E-2
      267000. 3.063 4.959E-2
      267500. 3.041 4.713E-2
      268000. 3.020 4.489E-2
      268500. 2.999 4.284E-2
      269000. 2.980 4.096E-2
      269500. 2.962 3.924E-2
      270000. 2.945 3.764E-2
      270500. 2.928 3.617E-2
      271000. 2.913 3.480E-2
      271500. 2.898 3.353E-2
      272000. 2.883 3.235E-2
      272500. 2.869 3.125E-2
      273000. 2.856 3.021E-2
      273500. 2.843 2.924E-2
      274000. 2.831 2.833E-2
      274500. 2.819 2.748E-2
      275000. 2.808 2.667E-2
      275500. 2.797 2.591E-2
      276000. 2.786 2.519E-2
      276500. 2.776 2.451E-2
      277000. 2.766 2.386E-2
      277500. 2.756 2.325E-2
      278000. 2.747 2.267E-2
      278500. 2.738 2.212E-2
      279000. 2.729 2.159E-2
      279500. 2.720 2.108E-2
      280000. 2.712 2.060E-2
      280500. 2.704 2.014E-2
      281000. 2.696 1.971E-2
      281500. 2.689 1.929E-2
      282000. 2.681 1.888E-2
      282500. 2.674 1.850E-2
      283000. 2.667 1.813E-2
      283500. 2.660 1.777E-2
      284000. 2.653 1.743E-2
      284500. 2.647 1.710E-2
      285000. 2.641 1.678E-2
      285500. 2.634 1.647E-2
      286000. 2.628 1.618E-2
      286500. 2.622 1.589E-2
      287000. 2.617 1.562E-2
      287500. 2.611 1.535E-2
      288000. 2.605 1.510E-2
      288500. 2.600 1.485E-2
      289000. 2.595 1.461E-2
      289500. 2.589 1.438E-2
      290000. 2.584 1.415E-2
      292000. 2.565 1.332E-2
      294000. 2.547 1.258E-2
      296000. 2.530 1.192E-2
      298000. 2.515 1.132E-2
      300000. 2.500 1.079E-2
      305000. 2.468 9.643E-3
      310000. 2.440 8.721E-3
      315000. 2.416 7.962E-3
      320000. 2.395 7.326E-3
      500000. 2.214 2.86E-3
      526300. 2.200 2.68E-3
      555600. 2.188 2.48E-3
      588200. 2.178 2.29E-3
      625000. 2.169 2.14E-3
      666700. 2.161 1.91E-3
      714300. 2.154 1.82E-3
      727300. 2.152 1.85E-3
      740700. 2.150 2.36E-3
      754700. 2.148 3.60E-3
      769200. 2.147 6.18E-3
      784300. 2.147 6.74E-3
      800000. 2.148 3.69E-3
      816300. 2.146 1.56E-3
      833300. 2.144 1.06E-3
      909100. 2.136 9.40E-4
  1.00000e+06 2.132 9.55E-4
  1.11100e+06 2.128 8.84E-4
  1.25000e+06 2.124 8.95E-4
  1.42900e+06 2.121 9.10E-4
  1.66700e+06 2.119 7.96E-4
  2.00000e+06 2.1114 7.96E-4
  2.50000e+06 2.1096 7.96E-4
  3.33300e+06 2.1081 7.96E-4
