;  Optical constants for SnTe
; 
;   taken from:
;
;   'Handbook of Optical Constants of Solids II', Ed. by Edward D. Palik,
;   Academic Press, Inc., 1991.
;   
;    Lambda (A)            n            k
;-----------------------------------------
       620.552      0.725000       0.00000
       634.591      0.730000       0.00000
       651.395      0.750000       0.00000
       670.960      0.735000       0.00000
       700.175      0.735000       0.00000
       728.951      0.740000       0.00000
       751.212      0.745000       0.00000
       779.405      0.750000       0.00000
       807.582      0.730000       0.00000
       843.746      0.745000       0.00000
       891.814      0.740000       0.00000
       938.318      0.745000       0.00000
       981.864      0.735000       0.00000
       1036.71      0.745000       0.00000
       1109.24      0.745000       0.00000
       1160.43      0.740000       0.00000
       1219.08      0.780000       0.00000
       1299.31      0.740000       0.00000
       1371.61      0.816000       0.00000
       1466.87      0.866000       0.00000
       1553.83      0.916000       0.00000
       1651.75       1.01200       0.00000
       1720.03       1.10800       0.00000
       1786.20       1.15300       0.00000
       1860.72       1.16800       0.00000
       1935.37       1.16300       0.00000
       2046.89       1.18800       0.00000
       2196.28       1.22800       0.00000
       2287.88       1.15300       0.00000
       2378.29       1.05200       0.00000
       2517.36      0.977000       0.00000
       2721.84      0.881000       0.00000
       2991.80      0.876000       0.00000
       3115.86      0.967000       0.00000
       3321.19       1.00700       0.00000
       3610.37       1.10300       0.00000
       3902.42       1.22800       0.00000
       4143.72       1.36400       0.00000
       4533.09       1.55100       0.00000
       4983.12       1.70200       0.00000
       5334.77       1.81300       0.00000
       5480.99       1.87800       0.00000
       5505.33       1.98900       0.00000
       5529.88       2.13500       0.00000
       5582.17       2.44200       0.00000
       5661.19       2.71900       0.00000
       5823.39       2.99100       0.00000
       6059.63       3.27300       0.00000
       6214.54       3.47900       0.00000
       6480.92       3.70100       0.00000
       6812.09       3.91200       0.00000
       7486.71       4.28500       0.00000
       8040.21       4.54100       0.00000
       8674.78       4.80300       0.00000
       9493.11       5.07000       0.00000
       10305.9       5.31200       0.00000
       11597.8       5.57300       0.00000
       13105.7       5.86500       0.00000
       14349.5       6.10200       0.00000
       15874.5       6.31400       0.00000
       17462.0       6.54500       0.00000
       17916.2       7.68100       0.00000
       20258.2       7.55000       0.00000
       22624.1       7.44200       0.00000
       25148.1       7.30400       0.00000
       29171.8       7.10600       0.00000
       31308.1       6.87300       0.00000
       33855.8       6.82400       0.00000
       36789.3       6.62800       0.00000
       40253.2       6.44700       0.00000
       44597.1       6.25500       0.00000
       49791.2       6.00700       0.00000
       57934.6       5.75900       0.00000
       66299.5       5.30100       0.00000
       76061.4       4.57500       0.00000
       86699.3       3.48300       0.00000
       91837.0       2.86300       0.00000
