;  Optical constants for SrTiO3
; 
;   taken from:
;
;   'Handbook of Optical Constants of Solids II', Ed. by Edward D. Palik,
;   Academic Press, Inc., 1991.
;   
;    Lambda (A)            n            k
;-----------------------------------------
       413.267      0.574000      0.383000
       414.649      0.568000      0.392000
       416.040      0.563000      0.404000
       417.441      0.558000      0.416000
       418.851      0.553000      0.427000
       420.271      0.549000      0.442000
       421.701      0.547000      0.460000
       423.140      0.548000      0.477000
       424.589      0.548000      0.494000
       426.048      0.550000      0.510000
       427.517      0.552000      0.525000
       428.997      0.554000      0.541000
       430.486      0.557000      0.557000
       431.986      0.565000      0.572000
       433.496      0.572000      0.584000
       435.018      0.580000      0.597000
       436.549      0.587000      0.609000
       438.092      0.595000      0.621000
       439.645      0.603000      0.634000
       441.210      0.612000      0.645000
       442.786      0.620000      0.655000
       444.373      0.629000      0.665000
       445.971      0.638000      0.674000
       447.581      0.646000      0.684000
       449.203      0.656000      0.694000
       450.836      0.670000      0.703000
       452.482      0.683000      0.712000
       454.139      0.697000      0.720000
       455.809      0.710000      0.728000
       457.491      0.723000      0.736000
       459.185      0.736000      0.744000
       460.892      0.747000      0.752000
       462.612      0.759000      0.760000
       464.345      0.770000      0.768000
       466.090      0.782000      0.774000
       467.849      0.793000      0.779000
       469.621      0.805000      0.784000
       471.407      0.817000      0.789000
       473.206      0.828000      0.794000
       475.019      0.838000      0.799000
       476.846      0.845000      0.802000
       478.687      0.853000      0.804000
       480.543      0.860000      0.805000
       482.412      0.868000      0.807000
       484.297      0.875000      0.809000
       486.196      0.883000      0.811000
       488.110      0.890000      0.809000
       490.040      0.900000      0.806000
       491.984      0.911000      0.803000
       493.944      0.921000      0.800000
       495.920      0.932000      0.797000
       497.912      0.942000      0.794000
       499.919      0.944000      0.792000
       501.943      0.944000      0.791000
       503.984      0.943000      0.789000
       506.041      0.943000      0.788000
       508.115      0.949000      0.789000
       510.206      0.956000      0.794000
       512.314      0.963000      0.800000
       514.440      0.969000      0.806000
       516.583      0.984000      0.810000
       518.745      0.998000      0.808000
       520.924       1.01300      0.806000
       523.122       1.02200      0.803000
       525.339       1.02600      0.801000
       527.574       1.02900      0.798000
       529.829       1.03300      0.796000
       532.103       1.03700      0.793000
       534.397       1.04100      0.791000
       536.710       1.04600      0.788000
       539.043       1.05100      0.786000
       541.397       1.05600      0.783000
       543.772       1.06100      0.781000
       546.167       1.06400      0.779000
       548.584       1.06700      0.777000
       551.022       1.07000      0.775000
       553.482       1.07300      0.774000
       555.964       1.07600      0.773000
       558.468       1.07900      0.771000
       560.995       1.08200      0.770000
       563.545       1.08500      0.769000
       566.119       1.08800      0.767000
       568.716       1.09100      0.766000
       571.336       1.09500      0.766000
       573.981       1.09800      0.767000
       576.651       1.10100      0.768000
       579.346       1.10400      0.769000
       582.066       1.10700      0.770000
       584.811       1.11100      0.772000
       587.583       1.11400      0.773000
       590.381       1.11700      0.773000
       593.206       1.12200      0.774000
       596.058       1.12700      0.774000
       598.937       1.13200      0.775000
       601.845       1.13700      0.775000
       604.781       1.14200      0.776000
       607.745       1.14800      0.776000
       610.739       1.15300      0.777000
       613.762       1.15800      0.777000
       616.816       1.16300      0.778000
       619.900       1.16900      0.778000
       623.015       1.17500      0.779000
       626.162       1.18000      0.779000
       629.340       1.18600      0.781000
       632.551       1.19200      0.784000
       635.795       1.19800      0.787000
       639.072       1.20300      0.790000
       642.383       1.20900      0.793000
       645.729       1.21500      0.793000
       649.110       1.22000      0.792000
       652.526       1.22600      0.790000
       655.979       1.23100      0.787000
       659.468       1.23700      0.783000
       662.995       1.24300      0.780000
       666.559       1.24800      0.776000
       670.162       1.25000      0.769000
       673.804       1.25200      0.763000
       677.486       1.25400      0.756000
       681.209       1.25600      0.750000
       684.972       1.25800      0.746000
       688.778       1.26000      0.742000
       692.626       1.26200      0.737000
       696.517       1.26400      0.733000
       700.452       1.26600      0.729000
       704.432       1.26800      0.724000
       708.457       1.27000      0.720000
       712.529       1.27200      0.718000
       716.647       1.27400      0.715000
       720.814       1.27500      0.712000
       725.029       1.27700      0.709000
       729.294       1.27900      0.707000
       733.609       1.28000      0.706000
       737.976       1.28000      0.705000
       742.395       1.28100      0.704000
       746.867       1.28100      0.704000
       751.394       1.28200      0.704000
       755.976       1.28800      0.705000
       760.614       1.29700      0.707000
       765.309       1.30600      0.709000
       770.062       1.31600      0.710000
       774.875       1.32000      0.705000
       779.748       1.32100      0.699000
       784.684       1.32200      0.692000
       789.682       1.32400      0.686000
       794.744       1.32200      0.679000
       799.871       1.31700      0.672000
       805.065       1.31200      0.665000
       810.327       1.30600      0.657000
       815.658       1.29700      0.652000
       821.060       1.28800      0.651000
       826.533       1.27900      0.652000
       832.081       1.27000      0.658000
       837.703       1.26100      0.663000
       843.401       1.25400      0.669000
       849.178       1.24600      0.674000
       855.034       1.23800      0.680000
       860.972       1.23000      0.689000
       866.993       1.22800      0.702000
       873.099       1.22700      0.716000
       879.291       1.22600      0.729000
       885.571       1.22900      0.741000
       891.942       1.23400      0.751000
       898.406       1.24100      0.762000
       904.964       1.25000      0.773000
       911.618       1.25900      0.783000
       918.370       1.26800      0.792000
       925.224       1.27600      0.801000
       932.180       1.28700      0.810000
       939.242       1.30000      0.816000
       946.412       1.31200      0.820000
       953.692       1.32500      0.825000
       961.085       1.33300      0.829000
       968.594       1.34100      0.833000
       976.220       1.34900      0.835000
       983.968       1.35200      0.836000
       991.840       1.35400      0.838000
       999.839       1.35600      0.840000
       1007.97       1.36200      0.843000
       1016.23       1.36800      0.846000
       1024.63       1.37400      0.850000
       1033.17       1.38000      0.853000
       1041.85       1.38600      0.855000
       1050.68       1.40200      0.858000
       1059.66       1.41800      0.860000
       1068.79       1.43200      0.859000
       1078.09       1.44500      0.854000
       1087.54       1.44700      0.849000
       1097.17       1.42800      0.845000
       1106.96       1.42200      0.842000
       1116.94       1.42500      0.849000
       1127.09       1.42800      0.858000
       1137.43       1.43000      0.867000
       1147.96       1.43100      0.875000
       1158.69       1.42600      0.885000
       1169.62       1.41700      0.899000
       1180.76       1.42800      0.916000
       1192.12       1.45800      0.933000
       1203.69       1.48000      0.948000
       1215.49       1.50200      0.961000
       1227.52       1.53100      0.974000
       1239.80       1.56300      0.989000
       1252.32       1.59400       1.00400
       1265.10       1.62300       1.00900
       1278.14       1.65300       1.00800
       1291.46       1.66700       1.00300
       1305.05       1.65900      0.997000
       1318.94       1.64300      0.984000
       1333.12       1.65900      0.968000
       1347.61       1.68000      0.963000
       1362.42       1.70000      0.977000
       1377.56       1.73400       1.00000
       1393.03       1.77900       1.02400
       1408.86       1.82800       1.01500
       1425.06       1.87700       1.00000
       1441.63       1.92600      0.977000
       1458.59       1.95100      0.928000
       1475.95       1.94200      0.857000
       1493.73       1.92000      0.788000
       1511.95       1.89300      0.727000
       1530.62       1.86500      0.679000
       1549.75       1.83800      0.672000
       1569.37       1.80800      0.666000
       1589.49       1.77700      0.659000
       1610.13       1.74600      0.645000
       1631.32       1.71500      0.631000
       1653.07       1.68900      0.627000
       1675.41       1.66300      0.643000
       1698.36       1.63700      0.660000
       1721.94       1.61200      0.674000
       1746.20       1.58700      0.688000
       1771.14       1.56300      0.703000
       1796.81       1.49500      0.724000
       1823.24       1.45200      0.838000
       1850.45       1.43800      0.878000
       1878.48       1.55800      0.940000
       1907.38       1.62400       1.09900
       1937.19       1.68800       1.10600
       1967.94       1.72100       1.10500
       1999.68       1.75300       1.10100
       2032.46       1.76800       1.09500
       2066.33       1.77000       1.08900
       2101.36       1.76000       1.08600
       2137.59       1.74500       1.08600
       2175.09       1.72200       1.08900
       2213.93       1.69600       1.13000
       2254.18       1.66400       1.26900
       2295.93       1.71900       1.43800
       2339.25       1.90500       1.48200
       2384.23       2.02500       1.48400
       2430.98       2.08500       1.47400
       2479.60       2.13900       1.47400
       2530.20       2.21800       1.55200
       2582.92       2.32900       1.58200
       2637.87       2.48200       1.57000
       2695.22       2.73100       1.51700
       2755.11       2.78500       1.43600
       2817.73       2.84000       1.36100
       2883.26       2.90900       1.27700
       2951.90       2.96200       1.19000
       3023.90       3.02600       1.14500
       3099.50       3.15800       1.10000
       3178.97       3.25000       1.04500
       3262.63       3.29700      0.980000
       3350.81       3.32000      0.854000
       3443.89       3.27500      0.463000
       3542.29       3.18000      0.245000
       3646.47       2.97400      0.164000
       3756.97       2.81200      0.112000
       3874.38       2.77300     0.0830000
       3999.35       2.74500     0.0580000
       4132.67       2.72700     0.0480000
       4275.17       2.71200     0.0380000
       4427.86       2.66900     0.0280000
       4591.85       2.61000     0.0190000
       4768.46       2.58100     0.0150000
       4959.20       2.55200     0.0110000
       5165.83       2.52400       0.00000
       5390.44       2.49500       0.00000
       5635.45       2.47500       0.00000
       5903.81       2.45600       0.00000
       6199.00       2.43700       0.00000
       13886.6       2.26800       0.00000
       14082.2       2.26800       0.00000
       14283.4       2.26700       0.00000
       14490.4       2.26700       0.00000
       14703.5       2.26700       0.00000
       14923.0       2.26600       0.00000
       15149.1       2.26600       0.00000
       15382.1       2.26500       0.00000
       15622.5       2.26500       0.00000
       15870.5       2.26400       0.00000
       16126.4       2.26400       0.00000
       16390.8       2.26300       0.00000
       16664.0       2.26300       0.00000
       16946.4       2.26200       0.00000
       17238.6       2.26100       0.00000
       17541.0       2.26100       0.00000
       17854.3       2.26000       0.00000
       18178.9       2.25900       0.00000
       18515.5       2.25900       0.00000
       18864.9       2.25800       0.00000
       19227.7       2.25700       0.00000
       19604.7       2.25600       0.00000
       19996.8       2.25500       0.00000
       20404.9       2.25400       0.00000
       20830.0       2.25300       0.00000
       21273.2       2.25100       0.00000
       21735.6       2.25000       0.00000
       22218.6       2.24900       0.00000
       22723.6       2.24700       0.00000
       23252.1       2.24600       0.00000
       23805.7       2.24400       0.00000
       24386.3       2.24200       0.00000
       24996.0       2.24000       0.00000
       25636.9       2.23800       0.00000
       26311.5       2.23600       0.00000
       27022.7       2.23300       0.00000
       27773.3       2.23100       0.00000
       28566.8       2.22800       0.00000
       29407.0       2.22500       0.00000
       30298.1       2.22100       0.00000
       31245.0       2.21700       0.00000
       32252.9       2.21300       0.00000
       33328.0       2.20900       0.00000
       34477.2       2.20300       0.00000
       35708.5       2.19800       0.00000
       37031.1       2.19100       0.00000
       38455.3       2.18400       0.00000
       39993.5       2.17600       0.00000
       41659.9       2.16700       0.00000
       43471.2       2.15600       0.00000
       45447.2       2.14400       0.00000
       47611.4       2.13000       0.00000
       49991.9       2.11400       0.00000
       52623.1       2.09500       0.00000
       55546.6       2.07200       0.00000
       58814.0       2.04500       0.00000
       62489.9       2.01200       0.00000
       66655.9       1.97100       0.00000
       71417.0       1.91900       0.00000
       76910.7       1.85300       0.00000
       83319.9       1.76400       0.00000
       90894.4       1.64000       0.00000
       99983.9       1.45500     0.0160000
       101043.       1.43200     0.0180000
       102041.       1.40700     0.0190000
       103059.       1.38000     0.0210000
       104185.       1.35300     0.0230000
       105246.       1.32300     0.0260000
       106421.       1.29200     0.0280000
       107528.       1.25900     0.0310000
       108659.       1.22300     0.0350000
       109911.       1.18500     0.0390000
       111093.       1.14400     0.0430000
       112403.       1.10000     0.0480000
       113639.       1.05200     0.0540000
       114903.       1.00000     0.0610000
       116304.      0.942000     0.0690000
       117628.      0.878000     0.0800000
       119097.      0.805000     0.0930000
       120486.      0.722000      0.112000
       121908.      0.626000      0.139000
       123486.      0.512000      0.182000
       124980.      0.383000      0.263000
       126562.      0.274000      0.396000
       128184.      0.215000      0.545000
       129849.      0.186000      0.681000
       131558.      0.170000      0.805000
       133312.      0.161000      0.921000
       135113.      0.157000       1.03000
       136964.      0.155000       1.13700
       138866.      0.155000       1.24100
       140822.      0.157000       1.34500
       142834.      0.161000       1.44900
       144904.      0.166000       1.55500
       147035.      0.172000       1.66400
       149230.      0.181000       1.77600
       151491.      0.191000       1.89400
       153821.      0.205000       2.02000
       156225.      0.222000       2.15400
       158705.      0.243000       2.30100
       161264.      0.272000       2.46500
       163908.      0.310000       2.65300
       166640.      0.364000       2.87300
       169464.      0.446000       3.14300
       172386.      0.580000       3.49000
       175410.      0.831000       3.96600
       178543.       1.40500       4.65300
       181789.       3.08300       5.33400
       185155.       5.33300       3.25000
       188649.       4.42400       1.16900
       192277.       3.40700      0.538000
       196047.       2.66900      0.307000
       199968.       2.06900      0.208000
       204049.       1.50500      0.173000
       208300.      0.847000      0.217000
       212732.      0.185000      0.820000
       217356.      0.108000       1.34200
       222186.     0.0900000       1.69000
       227236.     0.0870000       1.96500
       232521.     0.0890000       2.20000
       238057.     0.0940000       2.41200
       243863.      0.101000       2.61000
       249960.      0.109000       2.79900
       256369.      0.119000       2.98300
       263115.      0.130000       3.16500
       270227.      0.141000       3.34700
       277733.      0.154000       3.53200
       285668.      0.168000       3.72000
       294070.      0.184000       3.91400
       302981.      0.201000       4.11500
       312450.      0.219000       4.32500
       322529.      0.240000       4.54500
       333280.      0.264000       4.77700
       344772.      0.291000       5.02400
       357085.      0.321000       5.28700
       370311.      0.356000       5.56900
       384553.      0.397000       5.87500
       399936.      0.445000       6.20800
       416599.      0.503000       6.57400
       434712.      0.574000       6.98000
       454472.      0.665000       7.43800
       476114.      0.787000       7.96400
       499919.      0.972000       8.59500
       526231.       1.32300       9.41600
       555466.       2.75000       10.6900
       588140.      0.945000       7.34100
       624899.      0.930000       10.2200
       666559.       1.36300       11.7100
       714170.       1.89600       13.2200
       769107.       2.66500       15.0200
       833199.       3.93400       17.3200
       908944.       6.32300       20.2900
       999839.       11.4400       23.5900
   1.11093e+06       21.0900       22.9100
   1.24980e+06       26.5900       13.9300
   1.42834e+06       24.9000       7.23300
   1.66640e+06       22.4700       4.13300
   1.99968e+06       20.6500       2.57600
   2.49960e+06       19.3800       1.67500
   3.33280e+06       18.5200       1.08700
   4.99919e+06       17.9700      0.658000
   9.99839e+06       17.6500      0.311000
