;  Optical constants for Ta
; 
;   taken from:
;
;   J. H. Weaver, C. Krafka, D. W. Lynch, and E. E. Koch, 'Physik Daten,
;   Physics Data: Optical Properties of Metals', Vol. 18-1 and 18-2,
;   Fach-information zentrum, Karlsruhe, 1981.
;   
;    Lambda (A)            n            k
;-----------------------------------------
   309.95    .95	.29
   313.87    .96	.29
   317.90    .97	.29
   322.03    .97	.29
   326.26    .98	.28
   330.61    .98	.28
   335.08    .99	.28
   339.67    .99	.27
   344.39    .99	.27
   349.24    .99	.27
   354.23    .99	.26
   359.36    .99	.26
   364.65    .99	.25
   370.09    .98	.25
   375.70    .98	.25
   381.48    .98	.24
   387.44    .98	.24
   393.59    .97	.24
   399.94    .97	.23
   406.49    .96	.23
   413.27    .95	.22
   416.04    .95	.22
   418.85    .94	.22
   421.70    .94	.22
   424.59    .93	.22
   427.52    .92	.22
   430.49    .92	.22
   433.50    .91	.22
   436.55    .91	.22
   439.65    .90	.22
   442.79    .90	.23
   445.97    .89	.23
   449.20    .89	.23
   452.48    .88	.24
   455.81    .88	.24
   459.19    .87	.25
   462.61    .87	.25
   466.09    .87	.26
   469.62    .87	.26
   473.21    .88	.26
   476.85    .88	.25
   480.54    .87	.25
   484.30    .86	.24
   488.11    .85	.24
   491.98    .84	.25
   495.92    .83	.25
   499.92    .83	.25
   503.98    .82	.25
   508.11    .81  	.25
   512.31    .80	.26
   516.58    .80	.26
   518.74    .79	.27
   520.92    .80	.27
   523.12    .80	.27
   525.34    .80	.26
   527.57    .79	.25
   529.83    .79	.25
   534.40    .76	.24
   539.04    .73	.24
   543.77    .71	.26
   548.58    .69	.27
   553.48    .68	.29
   558.47    .66	.30
   563.55    .64	.32
   568.72    .64	.34
   573.98    .64	.34
   579.35    .61	.35
   584.81    .59	.37
   590.38    .57	.39
   596.06    .56	.42
   601.84    .55	.44
   607.75    .55	.47
   613.76    .54	.50
   619.90    .54	.52
   626.16    .53	.55
   632.55    .53	.57
   639.07    .53	.60
   645.73    .52	.63
   652.53    .53	.65
   659.47    .53	.68
   666.56    .53	.71
   673.80    .54	.73
   681.21    .54	.76
   688.78    .55	.79
   696.52    .56	.81
   704.43    .56	.84
   712.53    .57	.87
   720.81    .58	.89
   729.29    .60	.92
   737.98    .61	.94
   746.87    .63	.97
   755.98    .64	.99
   765.31    .66	1.02
   774.88    .68	1.04
   784.68    .70	1.06
   794.74    .72	1.08
   805.06    .75	1.10
   815.66    .77	1.12
   826.53    .80	1.13
   837.70    .82	1.14
   849.18    .85	1.15
   860.97    .87	1.15
   873.10    .89	1.15
   885.57    .90	1.15
   898.41    .91	1.16
   911.62    .91	1.16
   925.22    .91	1.18
   939.24    .92	1.20
   953.69    .93	1.22
   968.59    .94	1.24
   983.97    .96	1.26
   999.84    .98	1.28
   1016.2    1.0	1.29
   1033.2    1.02	1.31
   1050.7    1.05	1.32
   1068.8    1.07	1.33
   1087.5    1.09	1.34
   1107.0    1.11	1.35
   1127.1    1.13	1.35
   1148.0    1.15	1.36
   1169.6    1.16	1.36
   1192.1    1.18	1.37
   1215.5    1.19	1.37
   1239.8    1.20	1.37
   1265.1    1.21	1.37
   1291.5    1.21	1.38
   1318.9    1.21	1.38
   1347.6    1.21	1.38
   1377.6    1.19	1.40
