;  Optical constants for polycrystalline ThF4
; 
;   taken from:
;
;   'Handbook of Optical Constants of Solids II', Ed. by Edward D. Palik,
;   Academic Press, Inc., 1991.
;   
;    Lambda (A)            n            k
;-----------------------------------------
       2200.18       1.61300       0.00000
       2299.76       1.59900       0.00000
       2399.92       1.58700       0.00000
       2500.10       1.57700       0.00000
       2599.71       1.56900       0.00000
       2699.91       1.56300       0.00000
       2799.91       1.55700       0.00000
       2900.12       1.55300       0.00000
       2999.76       1.54900       0.00000
       3099.50       1.54500       0.00000
       3199.48       1.54200       0.00000
       3299.97       1.54000       0.00000
       3400.44       1.53800       0.00000
       3499.29       1.53600       0.00000
       3599.88       1.53400       0.00000
       3699.79       1.53200       0.00000
       3799.57       1.53100       0.00000
       3899.97       1.53000       0.00000
       3999.35       1.52900       0.00000
       4099.87       1.52800       0.00000
       4199.86       1.52700       0.00000
       4300.38       1.52600       0.00000
       4357.82       1.53300       0.00000
       4399.57       1.52600       0.00000
       4500.18       1.52500       0.00000
       4600.37       1.52400       0.00000
       4699.77       1.52400       0.00000
       4799.85       1.52300       0.00000
       4900.40       1.52300       0.00000
       4999.19       1.52300       0.00000
       5099.96       1.52200       0.00000
       5200.50       1.52200       0.00000
       5399.83       1.52100       0.00000
       5459.27       1.52100       0.00000
       5599.82       1.52100       0.00000
       5798.88       1.52000       0.00000
       6000.97       1.52000       0.00000
       6199.00       1.52000       0.00000
       6400.62       1.51900       0.00000
       6598.19       1.51900       0.00000
       7000.56       1.51900       0.00000
       7397.37       1.51800       0.00000
       7797.48       1.51800       0.00000
       7998.71       1.51800       0.00000
       39993.5       1.55000    0.00150000
       40998.7       1.54000    0.00140000
       43003.8       1.53000    0.00140000
       45001.8       1.52000    0.00140000
       46997.7       1.51000    0.00140000
       49991.9       1.49000    0.00140000
       52005.0       1.48000    0.00140000
       53998.3       1.47000    0.00140000
       55998.2       1.46000    0.00140000
       57988.8       1.45000    0.00140000
       59980.6       1.45000    0.00140000
       61959.0       1.44000    0.00130000
       64006.2       1.43000    0.00130000
       65981.9       1.42000    0.00130000
       70005.6       1.41000    0.00130000
       75003.0       1.39000    0.00130000
       79987.1       1.38000    0.00130000
       84976.0       1.37000    0.00130000
       89971.0       1.35000    0.00140000
       95959.8       1.34000    0.00140000
       99983.9       1.33000    0.00140000
       105966.       1.32000    0.00140000
       105966.       1.35000       0.00000
       110009.       1.32000    0.00140000
       115009.       1.31000    0.00140000
       120019.       1.30000    0.00140000
