;  Optical constants for Ti
; 
;   taken from:
;
;   J. H. Weaver, C. Krafka, D. W. Lynch, and E. E. Koch, 'Physik Daten,
;   Physics Data: Optical Properties of Metals', Vol. 18-1 and 18-2,
;   Fach-information zentrum, Karlsruhe, 1981.
;   
;    Lambda (A)            n            k
;-----------------------------------------
   413.27    .84	.22
   430.04    .83	.25
   435.02    .82	.26
   440.11    .83	.28
   445.01    .84	.29
   450.02    .85	.30
   460.04    .86	.31
   465.04    .87	.31
   470.16    .88	.32
   475.02    .88	.32
   480.17    .89	.33
   485.05    .89	.33
   495.09    .91	.33
   499.11    .91	.34
   510.21    .92	.34
   515.08    .92	.35
   520.05    .94	.35
   525.12    .95	.35
   530.06    .95	.34
   535.09    .96	.34
   540.22    .97	.34
   545.21    .97	.33
   550.04    .98	.33
   555.22    .98	.33
   560.23    .98	.32
   565.09    .98	.32
   570.02    .99	.31
   575.05    .99	.31
   580.16    .99	.31
   585.09    .99	.31
   595.20    1.0	.29
   600.10    .99	.28
   605.08    .99	.28
   610.14    .98	.27
   620.21    .98	.27
   625.21    .98	.26
   630.30    .97	.26
   635.14    .97	.25
   640.06    .96	.25
   645.06    .96	.25
   650.13    .95	.24
   655.29    .94	.24
   660.17    .93	.24
   665.13    .92	.24
   670.16    .91	.23
   675.27    .89	.22
   685.35    .93	.21
   695.34    .98	.25
   700.06    .95	.25
   705.23    .93	.25
   710.08    .91	.25
   715.41    .90	.25
   720.40    .89	.26
   725.03    .89	.26
   730.15    .88	.26
   735.35    .87	.27
   740.18    .86	.27
   745.07    .86	.28
   750.03    .86	.28
   755.98    .84	.28
   760.61    .83	.29
   765.31    .83	.30
   770.06    .83	.31
   775.36    .83	.32
   780.24    .83	.33
   785.18    .83	.29
   790.18    .79	.32
   800.39    .80	.33
   805.06    .79	.34
   810.33    .79	.35
   815.66    .79	.36
   821.06    .79	.36
   825.43    .78	.37
   830.41    .79	.38
   835.44    .79	.38
   840.54    .78	.39
   845.13    .78	.40
   850.34    .78	.40
   855.03    .77	.41
   860.37    .77	.42
   865.18    .77	.42
   870.04    .77	.43
   875.57    .77	.44
   880.54    .77	.44
   885.57    .77	.45
   890.66    .77	.45
   895.16    .76	.46
   900.36    .76	.47
   910.28    .76	.48
   915.66    .76	.49
   920.42    .76	.50
   925.22    .76	.50
   930.08    .76	.50
   935.70    .76	.51
   940.67    .76	.52
   944.97    .76	.52
   955.16    .76	.54
   960.34    .76	.54
   965.58    .76	.55
   970.11    .76	.56
   975.45    .76	.56
   980.08    .76	.57
   985.53    .76	.58
   991.84    .76	.59
   995.82    .76	.59
   1000.6    .76	.60
   1005.5    .76	.61
   1010.4    .76	.61
   1015.4    .77	.62
   1020.4    .77	.63
   1025.5    .77	.63
   1030.6    .77	.64
   1040.1    .77	.65
   1050.7    .78	.67
   1060.6    .79	.68
   1070.6    .80	.69
   1080.0    .81	.69
   1090.4    .81	.69
   1100.1    .81	.69
   1109.9    .80	.70
   1120.0    .79	.72
   1130.2    .79	.74
   1140.6    .80	.76
   1150.1    .81	.78
   1160.9    .81	.79
   1170.7    .82	.80
   1180.8    .83	.81
   1189.8    .84	.82
   1200.2    .85	.83
   1209.6    .86	.84
   1220.3    .86	.85
   1230.0    .87	.86
   1241.0    .89	.88
   1249.8    .90	.88
   1260.0    .91	.88
   1270.3    .91	.89
   1279.5    .92	.90
   1290.1    .93	.90
   1299.6    .94	.90
   1310.6    .95	.91
   1320.3    .95	.91
   1330.3    .96	.93
   1340.3    .97	.93
