;  Atomic scattering factors for At.
;   
;  Concatenation of data from CXRO <http://www-cxro.lbl.gov>
;  and LLNL <http://www-phys.llnl.gov/V_Div/scattering/asf.html>
;  
;  E (eV) f1 f2
;---------------
       10.000000       -9999.0000        8.7814400
       10.161700       -9999.0000        8.8732100
       10.326100       -9999.0000        8.9659300
       10.493100       -9999.0000        9.0483600
       10.662800       -9999.0000        9.0853200
       10.835300       -9999.0000        9.1224400
       11.010600       -9999.0000        9.1597000
       11.188600       -9999.0000        9.1933000
       11.369600       -9999.0000        9.1514200
       11.553500       -9999.0000        9.1097300
       11.740400       -9999.0000        9.0682300
       11.930300       -9999.0000        9.0269200
       12.123200       -9999.0000        8.9858100
       12.319300       -9999.0000        8.9448700
       12.518600       -9999.0000        8.9041300
       12.721000       -9999.0000        8.8606000
       12.926800       -9999.0000        8.8128400
       13.135900       -9999.0000        8.7653300
       13.348300       -9999.0000        8.7180800
       13.564200       -9999.0000        8.6710800
       13.783600       -9999.0000        8.6243400
       14.006600       -9999.0000        8.5778500
       14.233100       -9999.0000        8.5309000
       14.463300       -9999.0000        8.4841700
       14.697300       -9999.0000        8.4376800
       14.935000       -9999.0000        8.3914500
       15.176500       -9999.0000        8.3454800
       15.422000       -9999.0000        8.2997600
       15.671400       -9999.0000        8.2542900
       15.924900       -9999.0000        8.2090600
       16.182500       -9999.0000        8.1619800
       16.444200       -9999.0000        8.1144400
       16.710200       -9999.0000        8.0671900
       16.980500       -9999.0000        8.0202100
       17.255100       -9999.0000        7.9735100
       17.534200       -9999.0000        7.9270700
       17.817800       -9999.0000        7.8753000
       18.106000       -9999.0000        7.7724600
       18.398900       -9999.0000        7.6709600
       18.696400       -9999.0000        7.5707900
       18.998800       -9999.0000        7.4719200
       19.306100       -9999.0000        7.3743400
       19.618400       -9999.0000        7.2780400
       19.935700       -9999.0000        7.1209500
       20.258200       -9999.0000        6.9525700
       20.585800       -9999.0000        6.7881800
       20.918800       -9999.0000        6.6276700
       21.257100       -9999.0000        6.4696700
       21.600900       -9999.0000        6.2568400
       21.950300       -9999.0000        6.0510100
       22.305300       -9999.0000        5.8519500
       22.666100       -9999.0000        5.6594400
       23.032700       -9999.0000        5.4732600
       23.405300       -9999.0000        5.2932100
       23.783800       -9999.0000        5.0970200
       24.168500       -9999.0000        4.8643700
       24.559400       -9999.0000        4.6423300
       24.956600       -9999.0000        4.4304200
       25.360300       -9999.0000        4.2281900
       25.770500       -9999.0000        4.0351900
       26.187300       -9999.0000        3.8510000
       26.610900       -9999.0000        3.6159800
       27.041300       -9999.0000        3.3608000
       27.478600       -9999.0000        3.1236200
       27.923100       -9999.0000        2.9031800
       28.374700       -9999.0000        2.6983000
       28.833700       -9999.0000        2.5491500
       29.300000        5.4996200        2.4352300
       29.773900        5.2791300        2.3264000
       30.255500        5.0562200        2.2514800
       30.744900        4.8457900        2.1820100
       31.242100        4.6375400        2.1141000
       31.747500        4.4235100        2.0463600
       32.260900        4.1995100        1.9807900
       32.782700        3.9628700        1.9215900
       33.313000        3.7123200        1.8656800
       33.851800        3.4312300        1.8148500
       34.399300        3.1442100        1.8204200
       34.955700        2.8652100        1.8260000
       35.521100        2.5734300        1.8375600
       36.095600        2.2810400        1.8715700
       36.679400        1.9841800        1.9062100
       37.272700        1.6637900        1.9415000
       37.875500        1.3323400        2.0261600
       38.488200        1.0072500        2.1151400
       39.110700       0.67421200        2.2080400
       39.743200       0.32201000        2.3181000
       40.386100     -0.034092700        2.4433200
       41.039300      -0.40702500        2.5753100
       41.703100      -0.81316100        2.7266700
       42.377600       -1.2284500        2.9069500
       43.063000       -1.6673500        3.0991500
       43.759500       -2.1648800        3.3055000
       44.467300       -2.6864100        3.6394100
       45.186500       -3.1894400        4.0070400
       45.917400       -3.6948100        4.4118200
       46.660000       -4.2264200        4.8800200
       47.414700       -4.7356400        5.4262400
       48.181600       -5.2242900        6.0335900
       48.960900       -5.6795800        6.7089100
       49.752800       -6.0979000        7.4062400
       50.557600       -6.5206200        8.1560900
       51.375300       -6.9277700        8.9818700
       52.206200       -7.3062900        9.8912600
       53.050600       -7.6453200        10.895100
       53.908700       -7.9064700        12.029600
       54.780600       -8.0174700        13.282200
       55.666700       -7.8266600        14.665300
       56.567000       -7.4754600        15.629800
       57.482000       -7.2451600        16.589100
       58.411700       -7.0119700        17.607200
       59.356400       -6.7040000        18.687900
       60.316500       -6.2637900        19.716000
       61.292100       -5.8456800        20.709300
       62.283400       -5.3850800        21.752600
       63.290800       -4.8282400        22.848500
       64.314500       -4.0626200        23.980800
       65.354700       -3.2406900        24.817000
       66.411800       -2.4514500        25.682300
       67.485900       -1.6143100        26.577800
       68.577500      -0.60028100        27.474300
       69.686700       0.42118100        28.081700
       70.813800        1.3814900        28.702600
       71.959100        2.3390300        29.337200
       73.123000        3.3452100        29.985800
       74.305700        4.4667700        30.604200
       75.507600        5.5952400        31.154100
       76.728900        6.7693500        31.713800
       77.969900        8.0605900        32.283600
       79.231000        9.6132400        32.863600
       80.512500        11.454800        32.916100
       81.814700        12.927700        32.648500
       83.138000        14.229900        32.383100
       84.482700        15.448800        32.115500
       85.849100        16.620900        31.848600
       87.237700        17.777400        31.583900
       88.648700        18.964000        31.321400
       90.082500        20.313200        31.061100
       91.539500        21.674800        30.348100
       93.020100        22.754900        29.546900
       94.524600        23.689600        28.766900
       96.053500        24.535200        28.007500
       97.607100        25.322100        27.268100
       99.185800        26.080800        26.548300
       100.79000        26.883000        25.820000
       102.42000        27.585100        24.912700
       104.07700        28.171100        24.037200
       105.76000        28.685000        23.192600
       107.47100        29.164500        22.377600
       109.20900        29.650300        21.591200
       110.97500        30.279200        20.733300
       112.77000        30.673700        19.557400
       114.59400        30.853700        18.448200
       116.44800        30.884600        17.402000
       118.33100        30.786900        16.415100
       120.24500        30.464600        15.484100
       122.19000        30.157800        14.984200
       124.16600        29.995700        14.511300
       126.17500        29.888000        14.053300
       128.21500        29.809200        13.609700
       130.28900        29.750500        13.180200
       132.39700        29.709100        12.764200
       134.53800        29.687400        12.361300
       136.71400        29.696600        11.971200
       138.92500        29.790000        11.593300
       141.17200        29.854200        11.006200
       143.45600        29.826000        10.441500
       145.77600        29.740900        9.9058600
       148.13400        29.632800        9.3976700
       150.53000        29.520200        8.9155300
       152.96400        29.453100        8.4581400
       155.43900        29.361700        7.8322600
       157.95300        29.143100        7.2149800
       160.50700        28.833500        6.6463500
       163.10300        28.466600        6.1225100
       165.74200        28.017700        5.6811100
       168.42200        27.600800        5.3310500
       171.14600        27.205800        5.0025800
       173.91500        26.807000        4.6943300
       176.72700        26.400200        4.4027700
       179.58600        25.975800        4.1274900
       182.49100        25.522600        3.8694200
       185.44200        24.991300        3.6703200
       188.44200        24.525800        3.5862100
       191.48900        24.099500        3.5040300
       194.58700        23.686000        3.4237300
       197.73400        23.260400        3.3489100
       200.93200        22.847900        3.3207500
       204.18200        22.448800        3.2928200
       207.48500        22.046700        3.2651300
       210.84000        21.625900        3.2609300
       214.25100        21.224200        3.2845400
       217.71600        20.828000        3.3083300
       221.23700        20.423400        3.3322900
       224.81600        19.983000        3.3739700
       228.45200        19.561100        3.4617700
       232.14700        19.147200        3.5518600
       235.90200        18.727900        3.6442900
       239.71700        18.286500        3.7427100
       243.59500        17.839800        3.8741100
       247.53500        17.386000        4.0101300
       251.53800        16.913800        4.1509200
       255.60700        16.408800        4.2966600
       259.74100        15.831400        4.4475100
       263.94200        15.135300        4.7072200
       268.21100        14.504100        5.1272400
       272.54900        13.915800        5.5847600
       276.95700        13.340200        6.0830800
       281.43700        12.775900        6.6359100
       285.98900        12.216800        7.2401700
       290.61500        11.629000        7.8994800
       295.31500        11.069900        8.7686500
       300.09200        10.632600        9.7529600
       304.94500        10.421000        10.847700
       309.87800        10.456300        11.792100
       314.89000        10.412900        12.571900
       319.98300        10.348700        13.403200
       325.15800        10.399100        14.261700
       330.41800        10.435300        15.026500
       335.76200        10.445400        15.832200
       341.19200        10.481300        16.681200
       346.71100        10.577700        17.568300
       352.31900        10.723500        18.474800
       358.01700        10.946800        19.428200
       363.80800        11.380900        20.370800
       369.69200        11.776700        21.093500
       375.67200        12.138900        21.841800
       381.74800        12.516500        22.616600
       387.92200        12.945800        23.418900
       394.19700        13.582800        24.166500
       400.57300        14.146900        24.723600
       407.05200        14.624900        25.293600
       413.63500        15.098600        25.876700
       420.32600        15.581700        26.473200
       427.12400        16.087000        27.083400
       434.03200        16.700700        27.675800
       441.05200        17.281400        28.165700
       448.18600        17.818700        28.664400
       455.43500        18.356600        29.171800
       462.80200        18.902400        29.688300
       470.28700        19.463100        30.213800
       477.89400        20.044800        30.748700
       485.62300        20.654300        31.292600
       493.47800        21.299700        31.846200
       501.45900        21.993600        32.409600
       509.57000        22.757600        32.983000
       517.81200        23.668300        33.566500
       526.18700        24.691800        33.886500
       534.69800        25.608100        34.071400
       543.34600        26.421600        34.257300
       552.13400        27.210000        34.442600
       561.06500        27.985600        34.627900
       570.13900        28.761000        34.814100
       579.36100        29.552300        35.001400
       588.73200        30.416600        35.165500
       598.25400        31.214800        35.211300
       607.93000        31.988500        35.293400
       617.76300        32.777800        35.374400
       627.75500        33.609900        35.448700
       637.90800        34.477200        35.448000
       648.22600        35.341800        35.345800
       658.71100        36.119100        35.177100
       669.36500        36.844200        35.009400
       680.19100        37.540700        34.831000
       691.19300        38.212900        34.642600
       702.37200        38.870000        34.435800
       713.73300        39.498600        34.179200
       725.27700        40.050200        33.889600
       737.00800        40.532600        33.602400
       748.92800        40.943200        33.317400
       761.04200        41.244800        33.043300
       773.35100        41.380100        32.861900
       785.85900        41.437700        32.972500
       798.57000        41.732600        33.327800
       811.48600        42.214300        33.686900
       824.61100        42.844300        34.049700
       837.94900        43.680500        34.416500
       851.50200        44.713400        34.566500
       865.27400        45.831300        34.441600
       879.26900        46.737300        34.072700
       893.49100        47.504200        33.707700
       907.94300        48.200500        33.346600
       922.62800        48.857800        32.989300
       937.55100        49.474400        32.607300
       952.71500        50.050500        32.222000
       968.12400        50.586100        31.834600
       983.78300        51.090100        31.452200
       999.69500        51.568500        31.072200
       1015.8600        52.027000        30.694600
       1032.2900        52.439500        30.300800
       1048.9900        52.810700        29.943000
       1065.9600        53.185900        29.623200
       1083.2000        53.563200        29.306400
       1100.7200        53.935900        28.992500
       1118.5200        54.302700        28.681600
       1136.6100        54.663500        28.373500
       1155.0000        55.019100        28.068500
       1173.6800        55.371000        27.766500
       1192.6600        55.720500        27.466800
       1211.9500        56.071100        27.170200
       1231.5500        56.433600        26.876500
       1251.4700        56.807800        26.555500
       1271.7200        57.182900        26.203800
       1292.2900        57.515800        25.814400
       1313.1900        57.814500        25.430300
       1334.4300        58.091100        25.051500
       1356.0100        58.350000        24.677700
       1377.9400        58.593600        24.309100
       1400.2300        58.824200        23.945500
       1422.8800        59.043700        23.586800
       1445.8900        59.254600        23.232900
       1469.2800        59.461400        22.879600
       1493.0400        59.665500        22.524800
       1517.1900        59.851400        22.147800
       1541.7300        60.013500        21.773100
       1566.6700        60.155600        21.404300
       1592.0100        60.282000        21.041000
       1617.7600        60.394400        20.683400
       1643.9200        60.493500        20.331200
       1670.5100        60.580200        19.984500
       1697.5300        60.655200        19.643400
       1724.9900        60.727700        19.307700
       1752.8900        60.787100        18.960500
       1781.2400        60.826000        18.613800
       1810.0500        60.845500        18.268900
       1839.3200        60.845300        17.929700
       1869.0700        60.827700        17.596300
       1899.3000        60.793100        17.268800
       1930.0200        60.741300        16.946900
       1961.2400        60.671800        16.630900
       1992.9600        60.581500        16.320700
       2025.2000        60.485800        16.024800
       2057.9500        60.372100        15.713800
       2091.2400        60.228000        15.405300
       2125.0600        60.057200        15.100300
       2159.4300        59.857400        14.798500
       2194.3600        59.626500        14.500300
       2229.8500        59.360300        14.204900
       2265.9200        59.054500        13.913300
       2302.5700        58.704000        13.625500
       2339.8100        58.302200        13.341200
       2377.6600        57.840600        13.060500
       2416.1100        57.306500        12.782200
       2455.1900        56.683800        12.508100
       2494.9000        55.951700        12.237900
       2535.2600        55.077700        11.970600
       2576.2600        54.012600        11.707100
       2617.9300        52.675100        11.447000
       2660.2700        50.914400        11.190600
       2703.3000        48.394400        10.937500
       2747.0300        44.047200        10.687900
       2786.6000        11.624700        10.470100
       2786.8000        11.629600        27.382800
       2791.4600        32.175300        27.309100
       2836.6100        43.612900        26.611000
       2882.4900        43.876200        25.934200
       2908.6000        24.981800        25.561400
       2908.8000        24.994600        37.114800
       2929.1100        45.596300        36.725500
       2976.4800        51.862600        35.843200
       3024.6300        55.229700        34.982400
       3073.5500        57.611700        34.145000
       3123.2600        59.435700        33.327900
       3173.7800        60.871500        32.531100
       3225.1100        61.995200        31.754000
       3277.2700        62.827700        30.997800
       3330.2800        63.315500        30.260000
       3384.1500        63.322600        29.541400
       3425.9000        55.526200        29.003700
       3426.1000        55.539300        33.650900
       3438.8800        62.399000        33.464600
       3494.5000        65.670400        32.673100
       3551.0200        67.284000        31.900400
       3608.4600        68.476500        31.147200
       3666.8200        69.440500        30.413800
       3726.1300        70.242500        29.696700
       3786.4000        70.910500        28.998500
       3847.6400        71.451500        28.317600
       3909.8700        71.840700        27.654000
       3973.1100        72.185900        27.006100
       4007.9000        69.697600        26.660400
       4008.1000        69.706200        28.189100
       4037.3800        72.347900        27.887500
       4102.6800        73.346300        27.233800
       4169.0300        73.956000        26.597000
       4236.4600        74.359500        25.976100
       4304.9800        74.263000        25.369300
       4316.9000        72.802400        25.266200
       4317.1000        72.803600        26.275100
       4374.6200        75.221600        25.809100
       4445.3700        75.908300        25.255100
       4517.2700        76.450900        24.706500
       4590.3300        76.921600        24.167800
       4664.5800        77.343300        23.634600
       4740.0300        77.725100        23.110400
       4816.6900        78.074700        22.594600
       4894.6000        78.396200        22.086700
       4973.7700        78.692000        21.586800
       5054.2100        78.964600        21.095400
       5135.9600        79.216100        20.612400
       5219.0300        79.448200        20.137900
       5303.4400        79.662100        19.671800
       5389.2200        79.859100        19.214300
       5476.3900        80.040300        18.765100
       5564.9700        80.206700        18.324500
       5654.9800        80.359100        17.892500
       5746.4400        80.498500        17.468900
       5839.3900        80.625500        17.053600
       5933.8300        80.740700        16.646700
       6029.8100        80.844900        16.248100
       6127.3300        80.938700        15.857800
       6226.4400        81.022500        15.475600
       6327.1500        81.097000        15.101500
       6429.4800        81.162500        14.735500
       6533.4800        81.219600        14.377500
       6639.1500        81.268700        14.027300
       6746.5400        81.310200        13.684900
       6855.6500        81.344500        13.349900
       6966.5400        81.371700        13.022800
       7079.2200        81.392700        12.703100
       7193.7200        81.407400        12.390400
       7310.0700        81.415900        12.085100
       7428.3100        81.418800        11.787000
       7548.4500        81.416300        11.496100
       7670.5400        81.408700        11.211900
       7794.6100        81.396100        10.934500
       7920.6800        81.378800        10.663500
       8048.7900        81.356600        10.399300
       8178.9800        81.330100        10.141400
       8311.2600        81.299400        9.8898400
       8445.6900        81.264500        9.6444200
       8582.2900        81.225500        9.4052100
       8721.1100        81.182900        9.1720100
       8862.1600        81.136600        8.9443300
       9005.5000        81.086400        8.7223300
       9151.1600        81.032700        8.5059900
       9299.1700        80.975600        8.2951800
       9449.5800        80.915200        8.0897900
       9602.4200        80.852300        7.8897600
       9757.7300        80.787400        7.6944000
       9915.5500        80.724500        7.5045700
       10075.900        80.659100        7.2999700
       10238.900        80.576100        7.1011100
       10404.500        80.484500        6.9078400
       10572.800        80.384500        6.7200500
       10743.800        80.276300        6.5376200
       10917.600        80.159700        6.3604500
       11094.200        80.034400        6.1884000
       11273.600        79.899500        6.0213600
       11455.900        79.754300        5.8592300
       11641.200        79.597500        5.7018800
       11829.500        79.427500        5.5491900
       12020.800        79.242100        5.4010700
       12215.300        79.038500        5.2574000
       12412.800        78.812900        5.1180700
       12613.600        78.559800        4.9829700
       12817.600        78.271600        4.8520100
       13025.000        77.936200        4.7250700
       13235.600        77.534600        4.6020600
       13449.700        77.032300        4.4828800
       13667.200        76.358500        4.3674200
       13888.300        75.324800        4.2556000
       14112.900        72.988100        4.1473000
       14213.400        58.955200        4.1003000
       14213.600        58.956000        10.520900
       14341.200        73.612700        10.358200
       14573.100        75.747200        10.072300
       14808.900        76.735300        9.7942800
       15048.400        77.338500        9.5239400
       15291.800        77.729500        9.2610700
       15539.100        77.970600        9.0054600
       15790.400        78.082400        8.7569000
       16045.800        78.056600        8.5152200
       16305.400        77.838500        8.2802000
       16569.100        77.211600        8.0516800
       16784.600        69.677400        7.8722100
       16784.800        69.678200        11.074000
       16837.100        75.894900        11.022000
       17109.400        77.742400        10.757600
       17386.100        77.992400        10.499600
       17492.900        74.965200        10.402700
       17493.100        74.965600        11.877600
       17667.400        78.822300        11.707600
       17953.100        79.739500        11.437500
       18243.500        80.350000        11.171800
       18538.600        80.829900        10.910500
       18838.400        81.229800        10.653700
       19143.100        81.573300        10.401300
       19452.700        81.873900        10.153400
       19767.400        82.140200        9.9100100
       20087.100        82.378100        9.6711300
       20412.000        82.592100        9.4367600
       20742.100        82.785200        9.2069100
       21077.600        82.960400        8.9815300
       21418.500        83.119400        8.7606400
       21765.000        83.264200        8.5441800
       22117.000        83.396100        8.3321600
       22474.700        83.516400        8.1245200
       22838.200        83.626100        7.9212200
       23207.600        83.726200        7.7222400
       23583.000        83.817400        7.5275200
       23964.400        83.900400        7.3370300
       24352.000        83.976000        7.1507000
       24745.900        84.044600        6.9685000
       25146.200        84.106700        6.7903600
       25552.900        84.162900        6.6162300
       25966.200        84.213500        6.4460600
       26386.100        84.259000        6.2797900
       26812.900        84.299700        6.1173500
       27246.600        84.335900        5.9586900
       27687.300        84.367900        5.8037500
       28135.100        84.396100        5.6524500
       28590.200        84.420500        5.5047600
       29052.600        84.441600        5.3605900
       29522.500        84.459500        5.2198800
       30000.000        84.474400        5.0825800
       30200.000        84.244200        4.8591900
       30400.000        84.248600        4.8064000
       30600.000        84.252600        4.7554100
       30800.000        84.256200        4.7044200
       31000.000        84.259400        4.6551500
       31200.000        84.262200        4.6058800
       31500.000        84.265800        4.5341400
       31900.000        84.269600        4.4412400
       32300.000        84.272200        4.3513700
       32600.000        84.273600        4.2858700
       33000.000        84.274900        4.2009800
       33400.000        84.275100        4.1178000
       33800.000        84.274400        4.0372200
       34100.000        84.273000        3.9784400
       34500.000        84.270600        3.9021600
       34900.000        84.267500        3.8291300
       35300.000        84.264000        3.7561000
       35700.000        84.259700        3.6868800
       36030.000        84.255300        3.6297700
       36500.000        84.248600        3.5519900
       37000.000        84.240800        3.4721200
       37500.000        84.232300        3.3950900
       38000.000        84.223300        3.3207600
       38500.000        84.213800        3.2489600
       39000.000        84.203800        3.1796100
       39500.000        84.193500        3.1125900
       40000.000        84.183000        3.0478100
       40800.000        84.165400        2.9477000
       41500.000        84.149100        2.8643300
       42300.000        84.129900        2.7735700
       43000.000        84.112600        2.6978400
       43800.000        84.092400        2.6152600
       44500.000        84.074600        2.5462600
       45300.000        84.054000        2.4706900
       46000.000        84.036000        2.4071900
       46500.000        84.022800        2.3634000
       47000.000        84.009500        2.3208700
       47500.000        83.996200        2.2795300
       48000.000        83.982800        2.2393600
       49000.000        83.956000        2.1623100
       49500.000        83.942600        2.1253600
       50000.000        83.929200        2.0893900
       50800.000        83.907600        2.0334900
       51500.000        83.888700        1.9865000
       52300.000        83.867100        1.9348700
       53000.000        83.848200        1.8914200
       54000.000        83.821100        1.8319700
       55000.000        83.794000        1.7754300
       55900.000        83.769600        1.7266300
       56814.900        83.744800        1.6791600
       57000.000        83.739700        1.6698100
       57200.000        83.734300        1.6598000
       57530.000        83.725300        1.6434800
       59540.000        83.670500        1.5493700
       59800.000        83.663400        1.5378200
       60000.000        83.657900        1.5290300
       60800.000        83.636000        1.4944300
       61500.000        83.616800        1.4651500
       62300.000        83.594600        1.4327900
       63000.000        83.575100        1.4053900
       64000.000        83.547000        1.3676600
       65000.000        83.518900        1.3315000
       65900.000        83.493100        1.3001500
       66830.000        83.466400        1.2689600
       67400.000        83.449800        1.2504300
       68000.000        83.432200        1.2313800
       69000.000        83.402500        1.2006200
       70000.000        83.372300        1.1710600
       71000.000        83.341500        1.1425100
       72000.000        83.310000        1.1150300
       72800.000        83.284200        1.0940700
       73500.000        83.261200        1.0757300
       74200.000        83.237700        1.0583700
       74960.000        83.211700        1.0395300
       75500.000        83.192800        1.0266200
       76000.000        83.175000        1.0149000
       76600.000        83.153200        1.0012300
       77110.000        83.134200       0.98960900
       77900.000        83.104100       0.97242000
       78600.000        83.076500       0.95719000
       79300.000        83.048100       0.94253300
       79700.000        83.031400       0.93435800
       80000.000        83.018600       0.92822600
       80800.000        82.983600       0.91241900
       81500.000        82.951600       0.89858700
       82300.000        82.913300       0.88355900
       83000.000        82.878100       0.87040900
       83500.000        82.851900       0.86139800
       84000.000        82.824600       0.85238700
       84500.000        82.796300       0.84366600
       85000.000        82.766800       0.83494600
       85400.000        82.742200       0.82824500
       85800.000        82.716800       0.82154300
       86200.000        82.690300       0.81484200
       86500.000        82.669700       0.80981600
       86900.000        82.641300       0.80342600
       87300.000        82.611600       0.79703700
       87700.000        82.580500       0.79064700
       88000.000        82.556200       0.78585500
       88300.000        82.531000       0.78124700
       88500.000        82.513600       0.77817500
       89000.000        82.468000       0.77049500
       89300.000        82.439000       0.76602700
       89500.000        82.419000       0.76304800
       89800.000        82.387700       0.75858000
       90000.000        82.366000       0.75560100
       90200.000        82.343600       0.75273000
       90400.000        82.320300       0.74986000
       90600.000        82.296200       0.74698900
       90800.000        82.271100       0.74411900
       91000.000        82.245100       0.74124800
       91200.000        82.217900       0.73837800
       91500.000        82.175000       0.73407200
       91700.000        82.144700       0.73132800
       91900.000        82.113000       0.72858400
       92100.000        82.079600       0.72584000
       92300.000        82.044500       0.72309500
       92500.000        82.007400       0.72035100
       92700.000        81.968100       0.71760700
       92850.000        81.937000       0.71554900
       93000.000        81.904400       0.71349100
       93200.000        81.858300       0.71087000
       93400.000        81.808800       0.70824800
       93600.000        81.755400       0.70562700
       93700.000        81.727000       0.70431700
       93800.000        81.697400       0.70300600
       93900.000        81.666400       0.70169500
       94000.000        81.633900       0.70038500
       94100.000        81.599800       0.69907400
       94200.000        81.564000       0.69776300
       94300.000        81.526100       0.69645300
       94400.000        81.486100       0.69514200
       94500.000        81.443600       0.69383200
       94600.000        81.398400       0.69252100
       94700.000        81.350000       0.69126900
       94800.000        81.298000       0.69001700
       94900.000        81.241800       0.68876500
       95000.000        81.180800       0.68751200
       95050.000        81.148200       0.68688600
       95100.000        81.114000       0.68626000
       95150.000        81.078100       0.68563400
       95200.000        81.040300       0.68500800
       95250.000        81.000400       0.68438200
       95300.000        80.958100       0.68375600
       95350.000        80.913200       0.68313000
       95400.000        80.865300       0.68250400
       95450.000        80.814000       0.68187800
       95500.000        80.758800       0.68125200
       95550.000        80.699000       0.68062600
       95600.000        80.633900       0.67999900
       95630.000        80.591900       0.67962400
       95650.000        80.562400       0.67937300
       95670.000        80.531800       0.67912300
       95700.000        80.483200       0.67874700
       95720.000        80.449000       0.67849700
       95750.000        80.394500       0.67812100
       95780.000        80.335600       0.67774600
       95800.000        80.293600       0.67749500
       95830.000        80.225700       0.67711900
       95850.000        80.176700       0.67686900
       95880.000        80.096600       0.67649300
       95900.000        80.038100       0.67624300
       95910.000        80.006900       0.67611800
       95920.000        79.974500       0.67599300
       95935.000        79.923000       0.67580500
       95950.000        79.867700       0.67561700
       95960.000        79.828300       0.67549200
       95970.000        79.786900       0.67536600
       95985.000        79.720000       0.67517900
       96000.000        79.646600       0.67499100
       96008.000        79.604500       0.67489100
       96015.000        79.565300       0.67480300
       96023.000        79.518000       0.67470300
       96030.000        79.474100       0.67461500
       96040.000        79.406500       0.67449000
       96050.000        79.332300       0.67436500
       96060.000        79.249800       0.67424000
       96065.000        79.205000       0.67417700
       96070.000        79.157400       0.67411400
       96075.000        79.106300       0.67405200
       96080.000        79.051700       0.67398900
       96085.000        78.992700       0.67392600
       96090.000        78.928800       0.67386400
       96095.000        78.858700       0.67380100
       96100.000        78.781200       0.67373900
       96105.000        78.694900       0.67367600
       96110.000        78.597000       0.67361300
       96113.000        78.531100       0.67357600
       96115.000        78.483600       0.67355100
       96118.000        78.406000       0.67351300
       96120.000        78.349200       0.67348800
       96123.000        78.254100       0.67345100
       96125.000        78.182500       0.67342600
       96128.000        78.058900       0.67338800
       96130.000        77.961800       0.67336300
       96131.500        77.877900       0.67334400
       96133.000        77.781400       0.67332500
       96134.500        77.667800       0.67330700
       96136.000        77.528300       0.67328800
       96137.500        77.348200       0.67326900
       96139.000        77.093200       0.67325000
       96140.500        76.674000       0.67323200
       96141.900        75.812600       0.67321400
       96142.000        75.867600       0.97673600
       96142.100        75.957300        1.2802600
       96142.200        76.042700        1.5837800
       96142.400        76.217900        2.1908200
       96142.900        76.654000        3.7084300
       96143.800        77.429900        6.4401300
       96144.800        78.286000        3.5566500
       96145.800        79.060400       0.67316700
       96146.900        78.250900       0.67315300
       96148.000        77.744000       0.67314000
       96149.100        77.266100       0.67312600
       96150.200        76.689900       0.67311300
       96151.100        76.806400        2.0345400
       96152.100        76.929500        3.5472400
       96154.000        77.097300        1.2839100
       96155.000        76.738700        1.8367000
       96156.000        76.722100        2.6357700
       96157.000        76.872700        2.8431500
       96158.000        77.204800        2.8651400
       96159.000        77.365200        2.8869700
       96160.000        77.463300        2.9093100
       96161.000        77.543900        2.9314700
       96162.000        77.619700        2.9541500
       96163.000        77.687000        2.9766600
       96164.000        77.750400        2.9888900
       96165.000        77.809200        3.0010200
       96166.000        77.861500        3.0132800
       96167.000        77.910000        3.0255300
       96168.000        77.956400        3.0377800
       96169.000        78.002000        3.0500100
       96170.000        78.046300        3.0623800
       96171.500        78.110300        3.0726000
       96173.000        78.169400        3.0828300
       96174.000        78.206700        3.0896100
       96175.000        78.244500        3.0964900
       96176.500        78.295500        3.1010200
       96178.000        78.347400        3.1055800
       96179.000        78.379000        3.1086200
       96180.000        78.411000        3.1116600
       96181.500        78.454200        3.1121900
       96183.000        78.497900        3.1127200
       96185.000        78.551200        3.1134200
       96188.000        78.624200        3.1096800
       96190.000        78.668600        3.1072000
       96192.000        78.710400        3.1034100
       96194.000        78.749100        3.0996200
       96197.000        78.802200        3.0936700
       96201.000        78.865700        3.0869100
       96205.000        78.921900        3.0801600
       96209.000        78.972800        3.0766200
       96213.000        79.019200        3.0730800
       96217.000        79.062300        3.0726100
       96220.000        79.093000        3.0722500
       96228.000        79.170400        3.0753700
       96235.000        79.234200        3.0795600
       96243.000        79.303700        3.0839700
       96250.000        79.361500        3.0864400
       96258.000        79.423800        3.0873300
       96265.000        79.474700        3.0865800
       96273.000        79.528300        3.0843700
       96280.000        79.571400        3.0824400
       96288.000        79.617300        3.0804400
       96295.000        79.654500        3.0786900
       96303.000        79.694600        3.0780600
       96310.000        79.728000        3.0775000
       96325.000        79.795600        3.0785500
       96340.000        79.859700        3.0800900
       96355.000        79.919600        3.0792200
       96370.000        79.974600        3.0783500
       96385.000        80.025900        3.0774800
       96400.000        80.073800        3.0766100
       96420.000        80.133400        3.0760900
       96450.000        80.215500        3.0753100
       96470.000        80.266100        3.0748000
       96500.000        80.336800        3.0740200
       96520.000        80.380900        3.0727400
       96550.000        80.442300        3.0708300
       96570.000        80.480600        3.0695500
       96600.000        80.534400        3.0676400
       96630.000        80.584700        3.0665300
       96650.000        80.616800        3.0657900
       96670.000        80.647700        3.0650600
       96700.000        80.691900        3.0639500
       96750.000        80.761000        3.0621000
       96780.000        80.799900        3.0610000
       96800.000        80.826800        3.0602600
       96840.000        80.873200        3.0579300
       96880.000        80.918300        3.0556000
       96910.000        80.950500        3.0538500
       96950.000        80.991400        3.0515100
       96980.000        81.020700        3.0497700
       97020.000        81.058200        3.0474300
       97060.000        81.093900        3.0451000
       97100.000        81.127800        3.0427700
       97150.000        81.168300        3.0405700
       97200.000        81.207100        3.0383700
       97250.000        81.244200        3.0361700
       97300.000        81.279800        3.0339700
       97400.000        81.346800        3.0295800
       97450.000        81.378500        3.0273800
       97500.000        81.409000        3.0251800
       97580.000        81.455700        3.0215000
       97650.000        81.494500        3.0182900
       97730.000        81.536800        3.0146100
       97800.000        81.572100        3.0113900
       97900.000        81.620300        3.0068000
       98000.000        81.666300        3.0022000
       98080.000        81.701500        2.9977200
       98150.000        81.730700        2.9938000
       98230.000        81.762700        2.9893200
       98300.000        81.789700        2.9854100
       98400.000        81.826400        2.9798100
       98500.000        81.861000        2.9742100
       98650.000        81.910300        2.9675200
       98800.000        81.957200        2.9608400
       98900.000        81.987000        2.9563800
       99000.000        82.015500        2.9519200
       99150.000        82.056700        2.9465800
       99300.000        82.096800        2.9412300
       99500.000        82.148400        2.9341100
       99800.000        82.220900        2.9215000
       99900.000        82.243800        2.9172900
       99950.000        82.255100        2.9151900
       100000.00        82.266400        2.9130900
