;  Atomic scattering factors for Au.
;   
;  Concatenation of data from CXRO <http://www-cxro.lbl.gov>
;  and LLNL <http://www-phys.llnl.gov/V_Div/scattering/asf.html>
;  
;  E (eV) f1 f2
;---------------
10.0000	-9999.	1.73645	
10.1617	-9999.	1.81425	
10.3261	-9999.	1.89553	
10.4931	-9999.	1.98045	
10.6628	-9999.	2.06919	
10.8353	-9999.	2.16029	
11.0106	-9999.	2.25522	
11.1886	-9999.	2.35433	
11.3696	-9999.	2.45698	
11.5535	-9999.	2.56237	
11.7404	-9999.	2.67227	
11.9303	-9999.	2.78521	
12.1232	-9999.	2.88817	
12.3193	-9999.	2.99494	
12.5186	-9999.	3.10132	
12.7210	-9999.	3.19752	
12.9268	-9999.	3.29669	
13.1359	-9999.	3.39894	
13.3483	-9999.	3.50437	
13.5642	-9999.	3.61306	
13.7836	-9999.	3.73152	
14.0066	-9999.	3.85438	
14.2331	-9999.	3.98129	
14.4633	-9999.	4.11238	
14.6973	-9999.	4.24778	
14.9350	-9999.	4.38725	
15.1765	-9999.	4.51173	
15.4220	-9999.	4.63973	
15.6714	-9999.	4.77138	
15.9249	-9999.	4.90700	
16.1825	-9999.	5.04723	
16.4442	-9999.	5.19146	
16.7102	-9999.	5.33982	
16.9805	-9999.	5.49242	
17.2551	-9999.	5.68629	
17.5342	-9999.	5.92705	
17.8178	-9999.	6.17800	
18.1060	-9999.	6.43958	
18.3989	-9999.	6.70137	
18.6964	-9999.	6.96844	
18.9988	-9999.	7.24614	
19.3061	-9999.	7.53492	
19.6184	-9999.	7.83520	
19.9357	-9999.	8.12303	
20.2582	-9999.	8.41958	
20.5858	-9999.	8.72696	
20.9188	-9999.	9.04555	
21.2571	-9999.	9.37578	
21.6009	-9999.	9.65639	
21.9503	-9999.	9.85393	
22.3053	-9999.	10.0555	
22.6661	-9999.	10.1353	
23.0327	-9999.	10.0079	
23.4053	-9999.	9.88212	
23.7838	-9999.	9.66742	
24.1685	-9999.	9.44840	
24.5594	-9999.	9.19934	
24.9566	-9999.	8.91210	
25.3603	-9999.	8.80138	
25.7705	-9999.	8.83333	
26.1873	-9999.	8.86539	
26.6109	-9999.	8.89756	
27.0413	-9999.	9.16016	
27.4786	-9999.	9.45786	
27.9231	-9999.	9.76523	
28.3747	-9999.	10.2659	
28.8337	-9999.	10.8106	
29.3000	2.78186	11.3841	
29.7739	3.12197	11.9461	
30.2555	3.70915	12.3765	
30.7449	4.20738	12.6184	
31.2421	4.73090	12.8652	
31.7475	5.46023	12.8839	
32.2609	5.87616	12.6294	
32.7827	6.08759	12.5189	
33.3130	6.32748	12.4795	
33.8518	6.56094	12.4401	
34.3993	6.77999	12.4009	
34.9557	6.98361	12.3612	
35.5211	7.16960	12.3210	
36.0956	7.33501	12.2809	
36.6794	7.47047	12.2410	
37.2727	7.56618	12.2520	
37.8755	7.69660	12.2957	
38.4882	7.83947	12.3395	
39.1107	7.98680	12.3835	
39.7432	8.13188	12.4276	
40.3861	8.26647	12.4883	
41.0393	8.42254	12.5633	
41.7031	8.59265	12.6389	
42.3776	8.77385	12.7149	
43.0630	8.96787	12.7913	
43.7595	9.18641	12.8683	
44.4673	9.46044	12.9155	
45.1865	9.69558	12.8825	
45.9174	9.89174	12.8495	
46.6600	10.0695	12.8166	
47.4147	10.2373	12.7764	
48.1816	10.3747	12.7253	
48.9609	10.4803	12.6743	
49.7528	10.5325	12.6236	
50.5576	10.4820	12.6684	
51.3753	10.5236	12.8041	
52.2062	10.6116	12.9412	
53.0506	10.7140	13.0799	
53.9087	10.8153	13.2200	
54.7806	10.8726	13.4192	
55.6667	11.0212	13.6953	
56.5670	11.2340	13.9771	
57.4820	11.5042	14.2647	
58.4117	11.8496	14.5582	
59.3564	12.3324	14.7951	
60.3165	12.7858	14.9282	
61.2921	13.2429	15.0626	
62.2834	13.7797	15.1981	
63.2908	14.5113	15.1516	
64.3145	15.0559	14.9190	
65.3547	15.5212	14.6802	
66.4118	15.9070	14.3628	
67.4859	16.2049	14.0523	
68.5775	16.4318	13.7485	
69.6867	16.5634	13.4513	
70.8138	16.6399	13.3031	
71.9591	16.7793	13.2003	
73.1230	16.9357	13.0984	
74.3057	17.0724	13.0206	
75.5076	17.2580	12.9864	
76.7289	17.4936	12.9523	
77.9699	17.8101	12.8622	
79.2310	18.0550	12.6853	
80.5125	18.2473	12.5107	
81.8147	18.3659	12.3386	
83.1380	18.2599	12.4097	
84.4827	18.8505	12.9523	
85.8491	19.5657	12.5874	
87.2377	20.0820	12.2174	
88.6487	20.4581	11.7345	
90.0825	20.7202	11.2706	
91.5395	20.9355	10.8251	
93.0201	21.0795	10.3143	
94.5246	21.1195	9.82493	
96.0535	21.0563	9.43000	
97.6071	21.0251	9.10771	
99.1858	21.0098	8.79644	
100.790	20.9978	8.49581	
102.420	20.9828	8.16706	
104.077	20.9254	7.83561	
105.760	20.8316	7.51761	
107.471	20.6981	7.21250	
109.209	20.5315	6.97495	
110.975	20.3879	6.76890	
112.770	20.2552	6.56893	
114.594	20.1193	6.37486	
116.448	19.9745	6.18654	
118.331	19.8219	6.01704	
120.245	19.6733	5.85800	
122.190	19.5238	5.70317	
124.166	19.3717	5.55244	
126.175	19.2194	5.40568	
128.215	19.0962	5.24101	
130.289	18.9163	5.02374	
132.397	18.6716	4.81547	
134.538	18.3368	4.65529	
136.714	18.0408	4.59490	
138.925	17.7643	4.53529	
141.172	17.4858	4.47645	
143.456	17.1848	4.41838	
145.776	16.8355	4.41238	
148.134	16.5220	4.45484	
150.530	16.2294	4.49770	
152.964	15.9331	4.54099	
155.439	15.6201	4.58468	
157.953	15.2536	4.64434	
160.507	14.9046	4.79736	
163.103	14.5783	4.95542	
165.742	14.2575	5.11868	
168.422	13.9229	5.28732	
171.146	13.5181	5.50617	
173.915	13.1645	5.81309	
176.727	12.8542	6.13711	
179.586	12.5629	6.47920	
182.491	12.2870	6.84035	
185.442	12.0260	7.22425	
188.442	11.7828	7.63159	
191.489	11.5587	8.06187	
194.587	11.3549	8.51642	
197.734	11.1765	8.99660	
200.932	11.0418	9.49633	
204.182	10.9248	9.99704	
207.485	10.8286	10.5242	
210.840	10.7719	11.0791	
214.251	10.8188	11.6556	
217.716	10.8711	12.1153	
221.237	10.8959	12.5931	
224.816	10.9268	13.0897	
228.452	10.9771	13.6060	
232.147	11.0689	14.1426	
235.902	11.2035	14.6377	
239.717	11.3288	15.1200	
243.595	11.4535	15.6181	
247.535	11.5993	16.1327	
251.538	11.8006	16.6642	
255.607	12.0193	17.1345	
259.741	12.2277	17.6098	
263.942	12.4476	18.0983	
268.211	12.6922	18.6004	
272.549	12.9864	19.1164	
276.957	13.3576	19.5628	
281.437	13.6892	19.9461	
285.989	13.9869	20.3369	
290.615	14.2836	20.7353	
295.315	14.5851	21.1416	
300.092	14.8975	21.5558	
304.945	15.2276	21.9781	
309.878	15.5942	22.4087	
314.890	15.9831	22.7880	
319.983	16.3610	23.1566	
325.158	16.7341	23.5311	
330.418	17.1169	23.9117	
335.762	17.5147	24.2985	
341.192	17.9349	24.6915	
346.711	18.3896	25.0908	
352.319	18.9274	25.4931	
358.017	19.4563	25.7443	
363.808	19.9485	25.9981	
369.692	20.4207	26.2543	
375.672	20.8904	26.5131	
381.748	21.3637	26.7745	
387.922	21.8467	27.0384	
394.197	22.3477	27.3049	
400.573	22.8913	27.5740	
407.052	23.4689	27.7588	
413.635	24.0088	27.9017	
420.326	24.5150	28.0452	
427.124	25.0126	28.1895	
434.032	25.5070	28.3345	
441.052	26.0028	28.4802	
448.186	26.5151	28.6268	
455.435	27.0441	28.7421	
462.802	27.5482	28.8269	
470.287	28.0361	28.9120	
477.894	28.5159	28.9974	
485.623	28.9911	29.0829	
493.478	29.4640	29.1688	
501.459	29.9364	29.2549	
509.570	30.4139	29.3412	
517.812	30.8927	29.4178	
526.187	31.3674	29.4913	
534.698	31.8415	29.5649	
543.346	32.3172	29.6387	
552.134	32.7965	29.7127	
561.065	33.2820	29.7869	
570.139	33.7827	29.8571	
579.361	34.2806	29.9096	
588.732	34.7773	29.9623	
598.254	35.2774	30.0150	
607.930	35.7840	30.0678	
617.763	36.3004	30.1207	
627.755	36.8307	30.1737	
637.908	37.3825	30.2268	
648.226	37.9798	30.2800	
658.711	38.6353	30.2414	
669.365	39.2385	30.1231	
680.191	39.7825	30.0054	
691.193	40.3066	29.8880	
702.372	40.8159	29.7712	
713.733	41.3141	29.6548	
725.277	41.7984	29.5389	
737.008	42.2802	29.4357	
748.928	42.7658	29.3333	
761.042	43.2546	29.2313	
773.351	43.7488	29.1296	
785.859	44.2504	29.0283	
798.570	44.7971	28.9271	
811.486	45.3349	28.7522	
824.611	45.8436	28.5783	
837.949	46.3465	28.4055	
851.502	46.8517	28.2338	
865.274	47.3632	28.0631	
879.269	47.9574	27.8881	
893.491	48.5208	27.5753	
907.943	49.0146	27.2660	
922.628	49.4847	26.9602	
937.551	49.9423	26.6578	
952.715	50.4046	26.3588	
968.124	50.8667	26.0207	
983.783	51.3012	25.6649	
999.695	51.7118	25.3140	
1015.86	52.1155	24.9678	
1032.29	52.5732	24.6265	
1048.99	53.0314	24.1729	
1065.96	53.3975	23.6661	
1083.20	53.7017	23.1699	
1100.72	53.9644	22.6841	
1118.52	54.1937	22.2085	
1136.61	54.3940	21.7429	
1155.	54.5679	21.2865	
1173.68	54.7162	20.8396	
1192.66	54.8395	20.4021	
1211.95	54.9309	19.9738	
1231.55	54.9750	19.5719	
1251.47	55.0316	19.2376	
1271.72	55.1057	18.9090	
1292.29	55.1874	18.5860	
1313.19	55.2905	18.2686	
1334.43	55.3836	17.8978	
1356.01	55.4438	17.5237	
1377.94	55.4747	17.1576	
1400.23	55.4872	16.7990	
1422.88	55.4558	16.4480	
1445.89	55.4250	16.1608	
1469.28	55.4335	15.8860	
1493.04	55.5196	15.6136	
1517.19	55.5549	15.1441	
1541.73	55.4733	14.6844	
1566.67	55.2816	14.2743	
1592.01	55.0795	13.9739	
1617.76	54.9140	13.6880	
1643.92	54.7664	13.4012	
1670.51	54.5596	13.0479	
1697.53	54.2812	12.7438	
1724.99	54.0229	12.5024	
1752.89	53.7265	12.2124	
1781.24	53.3700	12.0078	
1810.05	53.0811	11.8536	
1839.32	52.7486	11.5811	
1869.07	52.3208	11.3598	
1899.30	51.9272	11.2040	
1930.02	51.5156	10.9604	
1961.24	50.9557	10.6709	
1992.96	50.2863	10.4467	
2025.20	49.5537	10.2451	
2057.95	48.6938	10.0148	
2091.24	47.6322	9.77178	
2125.06	46.2727	9.52110	
2159.43	44.4424	9.28256	
2194.36	41.7216	9.02538	
2229.85	35.6915	11.1037	
2265.92	35.3992	20.1927	
2302.57	35.5671	21.3357	
2339.81	37.0803	28.3053	
2377.66	41.8200	29.9292	
2416.11	45.3451	30.3415	
2455.19	47.4191	30.1195	
2494.90	49.1365	30.0334	
2535.26	50.6780	29.7928	
2576.26	51.8730	29.3224	
2617.93	52.4894	28.9273	
2660.27	53.2607	29.0345	
2703.30	52.9018	28.6207	
2747.03	52.9705	30.9060	
2791.46	55.2863	31.8683	
2836.61	57.3598	31.4084	
2882.49	58.6589	31.0756	
2929.11	59.9227	30.6543	
2976.48	60.9171	30.0478	
3024.63	61.7019	29.5033	
3073.55	62.3899	29.0031	
3123.26	62.7192	28.4478	
3173.78	63.1577	28.7221	
3225.11	64.2194	28.8967	
3277.27	65.2597	28.3262	
3330.28	66.0183	27.8026	
3384.15	66.5074	27.2710	
3438.88	66.9385	27.1058	
3494.50	67.9305	26.9648	
3551.02	68.8464	26.2268	
3608.46	69.3468	25.6241	
3666.82	69.8352	25.0676	
3726.13	70.2945	24.5340	
3786.40	70.7409	24.0263	
3847.64	71.1653	23.4825	
3909.87	71.5408	22.9482	
3973.11	71.8852	22.4317	
4037.38	72.2193	21.9280	
4102.68	72.5193	21.4029	
4169.03	72.8465	20.9204	
4236.46	72.9783	20.2638	
4304.98	73.0919	19.9740	
4374.62	73.3624	19.5013	
4445.37	73.5614	19.0807	
4517.27	73.7577	18.6347	
4590.33	73.9253	18.2079	
4664.58	74.0788	17.7819	
4740.03	74.2121	17.3679	
4816.69	74.3252	16.9656	
4894.60	74.4302	16.5884	
4973.77	74.5183	16.2132	
5054.21	74.6031	15.8827	
5135.96	74.7209	15.5418	
5219.03	74.7789	15.1636	
5303.44	74.9028	14.9574	
5389.22	75.0765	14.5361	
5476.39	75.1224	14.1854	
5564.97	75.1809	13.8440	
5654.98	75.2285	13.5168	
5746.44	75.2638	13.2024	
5839.39	75.3322	12.9222	
5933.83	75.3935	12.5542	
6029.81	75.4192	12.2989	
6127.33	75.4657	11.9837	
6226.44	75.4815	11.6782	
6327.15	75.4910	11.3838	
6429.48	75.4957	11.0963	
6533.48	75.4938	10.8152	
6639.15	75.4857	10.5407	
6746.54	75.4719	10.2725	
6855.65	75.4525	10.0108	
6966.54	75.4279	9.75519	
7079.22	75.3981	9.50568	
7193.72	75.3633	9.26191	
7310.07	75.3233	9.02427	
7428.31	75.2786	8.79262	
7548.45	75.2295	8.56658	
7670.54	75.1756	8.34582	
7794.61	75.1167	8.13073	
7920.68	75.0532	7.92114	
8048.79	74.9851	7.71688	
8178.98	74.9122	7.51777	
8311.26	74.8344	7.32368	
8445.69	74.7514	7.13442	
8582.29	74.6629	6.95007	
8721.11	74.5687	6.77055	
8862.16	74.4684	6.59582	
9005.50	74.3618	6.42578	
9151.16	74.2482	6.26015	
9299.17	74.1271	6.09888	
9449.58	73.9974	5.94179	
9602.42	73.8580	5.78882	
9757.73	73.7077	5.63995	
9915.55	73.5448	5.49507	
10075.9	73.3671	5.35422	
10238.9	73.1719	5.21720	
10404.5	72.9555	5.08390	
10572.8	72.7124	4.95425	
10743.8	72.4353	4.82815	
10917.6	72.1127	4.70552	
11094.2	71.7263	4.58628	
11273.6	71.2436	4.47034	
11455.9	70.5981	4.35762	
11641.2	69.6151	4.24804	
11829.5	67.4461	4.14153	
11918.6	54.2731	4.09265	
11918.8	54.2736	10.2075	
12020.8	67.8226	10.0588	
12215.3	69.8923	9.78487	
12412.8	70.8160	9.51839	
12613.6	71.3557	9.25916	
12817.6	71.6745	9.00701	
13025.0	71.8212	8.76171	
13235.6	71.7884	8.52311	
13449.7	71.4804	8.29101	
13667.2	70.2234	8.06522	
13733.5	63.7471	7.99837	
13733.7	63.7474	11.1563	
13888.3	71.2206	10.9501	
14112.9	72.1012	10.6611	
14341.2	71.3028	10.3797	
14352.7	69.3284	10.3658	
14352.9	69.3299	11.9146	
14573.1	73.2440	11.6510	
14808.9	74.0231	11.3795	
15048.4	74.5877	11.1126	
15291.8	75.0435	10.8502	
15539.1	75.4285	10.5924	
15790.4	75.7620	10.3391	
16045.8	76.0552	10.0905	
16305.4	76.3159	9.84646	
16569.1	76.5494	9.60705	
16837.1	76.7597	9.37224	
17109.4	76.9499	9.14202	
17386.1	77.1223	8.91638	
17667.4	77.2791	8.69527	
17953.1	77.4218	8.47869	
18243.5	77.5519	8.26660	
18538.6	77.6705	8.05895	
18838.4	77.7786	7.85571	
19143.1	77.8772	7.65684	
19452.7	77.9670	7.46228	
19767.4	78.0487	7.27198	
20087.1	78.1230	7.08590	
20412.0	78.1904	6.90398	
20742.1	78.2514	6.72616	
21077.6	78.3065	6.55238	
21418.5	78.3561	6.38260	
21765.0	78.4006	6.21673	
22117.0	78.4403	6.05473	
22474.7	78.4756	5.89654	
22838.2	78.5067	5.74207	
23207.6	78.5339	5.59129	
23583.0	78.5576	5.44410	
23964.4	78.5778	5.30047	
24352.0	78.5949	5.16031	
24745.9	78.6091	5.02357	
25146.2	78.6204	4.89018	
25552.9	78.6292	4.76008	
25966.2	78.6356	4.63319	
26386.1	78.6398	4.50946	
26812.9	78.6418	4.38882	
27246.6	78.6418	4.27121	
27687.3	78.6401	4.15657	
28135.1	78.6366	4.04482	
28590.2	78.6317	3.93592	
29052.6	78.6259	3.82980	
29522.5	78.6286	3.72639	
30000.0	78.5768	3.62565	
       30400.000        78.465400        3.5829800
       30800.000        78.457700        3.5044900
       31200.000        78.449200        3.4287000
       31500.000        78.442500        3.3735600
       31900.000        78.433000        3.3022000
       32300.000        78.423000        3.2332100
       32600.000        78.415200        3.1829500
       33000.000        78.404600        3.1178600
       33400.000        78.393500        3.0547400
       33800.000        78.382300        2.9936300
       34100.000        78.373600        2.9490600
       34500.000        78.362000        2.8912500
       34900.000        78.350200        2.8352200
       35300.000        78.338300        2.7806300
       35700.000        78.325900        2.7275900
       36030.000        78.315800        2.6850300
       36500.000        78.300900        2.6262000
       37000.000        78.285000        2.5658400
       37500.000        78.268800        2.5076400
       38000.000        78.252700        2.4515100
       38500.000        78.236400        2.3970600
       39000.000        78.220100        2.3444900
       39500.000        78.203600        2.2937300
       40000.000        78.187100        2.2446800
       40800.000        78.160400        2.1691600
       41500.000        78.137000        2.1063100
       42300.000        78.110100        2.0379400
       43000.000        78.086500        1.9809500
       43800.000        78.059600        1.9188300
       44500.000        78.036100        1.8669600
       45300.000        78.009200        1.8102200
       46000.000        77.985600        1.7626000
       46400.000        77.972100        1.7362600
       46800.000        77.958700        1.7105400
       47200.000        77.945200        1.6854200
       47673.200        77.929200        1.6564400
       48200.000        77.911500        1.6250900
       48800.000        77.891200        1.5905100
       49400.000        77.871000        1.5570700
       49700.000        77.860900        1.5407700
       50000.000        77.850800        1.5247300
       51000.000        77.816900        1.4729200
       52000.000        77.783000        1.4238200
       53000.000        77.748600        1.3772600
       54000.000        77.714300        1.3330400
       55000.000        77.679600        1.2910100
       56000.000        77.644500        1.2507900
       56800.000        77.616000        1.2200100
       57530.000        77.589600        1.1929400
       58000.000        77.572400        1.1760100
       58500.000        77.553900        1.1584100
       59540.000        77.514900        1.1231000
       59800.000        77.505000        1.1145400
       60000.000        77.497400        1.1080200
       60800.000        77.466400        1.0824000
       61500.000        77.438500        1.0607500
       62300.000        77.406000        1.0368100
       63000.000        77.376700        1.0165600
       64000.000        77.333400       0.98867600
       65000.000        77.288300       0.96197600
       65900.000        77.245800       0.93884800
       66830.000        77.199700       0.91585100
       67100.000        77.185800       0.90937900
       67400.000        77.170100       0.90218800
       68000.000        77.137800       0.88814800
       68500.000        77.109900       0.87682200
       69000.000        77.081000       0.86549600
       69500.000        77.050900       0.85461500
       70000.000        77.019600       0.84373500
       70500.000        76.987000       0.83325600
       71000.000        76.952800       0.82277700
       71500.000        76.917000       0.81269900
       71800.000        76.894600       0.80665200
       72000.000        76.879200       0.80262100
       72400.000        76.847500       0.79493600
       72800.000        76.814300       0.78725200
       73200.000        76.779400       0.77956700
       73500.000        76.752100       0.77380400
       73900.000        76.713800       0.76653700
       74200.000        76.683600       0.76108700
       74600.000        76.641200       0.75381900
       74960.000        76.600600       0.74727900
       75200.000        76.572100       0.74307800
       75500.000        76.534700       0.73782700
       75800.000        76.495100       0.73267500
       76000.000        76.467400       0.72924100
       76300.000        76.423600       0.72423800
       76600.000        76.376700       0.71923500
       76900.000        76.326400       0.71423200
       77010.000        76.307000       0.71239800
       77110.000        76.288800       0.71073000
       77300.000        76.252900       0.70770600
       77500.000        76.212900       0.70452200
       77700.000        76.170500       0.70133900
       77900.000        76.125300       0.69815500
       78100.000        76.076900       0.69497200
       78300.000        76.024800       0.69178800
       78450.000        75.983000       0.68940100
       78600.000        75.938600       0.68701300
       78700.000        75.907300       0.68550000
       78800.000        75.874600       0.68398800
       78900.000        75.840200       0.68247500
       79000.000        75.804100       0.68096300
       79080.000        75.773800       0.67975300
       79150.000        75.746300       0.67869400
       79230.000        75.713400       0.67748400
       79300.000        75.683300       0.67642500
       79400.000        75.638000       0.67491200
       79500.000        75.589600       0.67340000
       79600.000        75.537800       0.67188700
       79700.000        75.481900       0.67037500
       79780.000        75.433900       0.66916500
       79850.000        75.389200       0.66810600
       79920.000        75.341500       0.66704700
       80000.000        75.283000       0.66583700
       80040.000        75.251800       0.66524900
       80080.000        75.219300       0.66466000
       80150.000        75.158800       0.66363000
       80190.000        75.121900       0.66304200
       80230.000        75.083000       0.66245400
       80260.000        75.052400       0.66201200
       80300.000        75.009600       0.66142400
       80350.000        74.952500       0.66068900
       80400.000        74.890600       0.65995300
       80450.000        74.823300       0.65921800
       80470.000        74.794500       0.65892300
       80500.000        74.749300       0.65848200
       80540.000        74.684500       0.65790400
       80580.000        74.613700       0.65732600
       80620.000        74.535600       0.65674700
       80650.000        74.471300       0.65631400
       80670.000        74.425300       0.65602500
       80690.000        74.376300       0.65573600
       80710.000        74.324000       0.65544700
       80730.000        74.268000       0.65515700
       80745.000        74.223100       0.65494100
       80760.000        74.175500       0.65472400
       80780.000        74.107000       0.65443500
       80800.000        74.032000       0.65414600
       80815.000        73.970500       0.65392900
       80830.000        73.903900       0.65371200
       80840.000        73.856000       0.65356800
       80850.000        73.805100       0.65342300
       80865.000        73.721900       0.65320600
       80880.000        73.628900       0.65298900
       80890.000        73.560000       0.65284500
       80900.000        73.484700       0.65270000
       80910.000        73.401300       0.65255600
       80915.000        73.356100       0.65248300
       80920.000        73.308200       0.65241100
       80928.000        73.224800       0.65229600
       80935.000        73.143800       0.65219400
       80939.000        73.093600       0.65213700
       80943.000        73.040000       0.65207900
       80946.000        72.997200       0.65203500
       80950.000        72.936500       0.65197800
       80954.000        72.870600       0.65192000
       80958.000        72.798800       0.65186200
       80962.000        72.719800       0.65180400
       80965.000        72.654900       0.65176100
       80969.000        72.559600       0.65170300
       80972.000        72.479700       0.65166000
       80974.000        72.421500       0.65163100
       80976.000        72.359000       0.65160200
       80978.000        72.291000       0.65157300
       80980.000        72.217200       0.65154400
       80981.500        72.156700       0.65152200
       80983.000        72.091200       0.65150100
       80984.500        72.020300       0.65147900
       80986.000        71.942300       0.65145700
       80987.500        71.856300       0.65143500
       80989.000        71.759600       0.65141400
       80990.000        71.688900       0.65139900
       80991.000        71.610800       0.65138500
       80992.500        71.478700       0.65136300
       80994.000        71.321400       0.65134200
       80995.500        71.129000       0.65132000
       80997.000        70.881000       0.65129800
       80998.500        70.539400       0.65127600
       81000.000        70.005300       0.65125500
       81001.100        69.327800       0.65123900
       81002.200        68.015000       0.65122300
       81002.300        68.185700        1.2466200
       81002.400        68.351300        1.8420100
       81002.600        68.684800        3.0327900
       81003.000        69.348200        5.4143600
       81003.800        70.621100        10.177500
       81004.600        71.744900       0.65118800
       81005.000        72.354400       0.65118200
       81005.400        72.947700       0.72052700
       81006.200        71.595200        1.4533900
       81007.900        70.670800        2.4059100
       81008.900        70.758300        3.4493500
       81010.000        71.253300        3.4222800
       81011.500        71.638100        3.3860200
       81013.000        71.818300        3.3499700
       81014.500        71.951100        3.3175600
       81016.000        72.059700        3.2913400
       81017.500        72.150200        3.2657100
       81019.000        72.227000        3.2399300
       81020.500        72.292700        3.2231000
       81022.000        72.353700        3.2062900
       81023.500        72.407900        3.1896400
       81025.000        72.454900        3.1730000
       81026.500        72.497000        3.1631600
       81028.000        72.537900        3.1532500
       81029.000        72.562400        3.1467600
       81030.000        72.585700        3.1402400
       81031.500        72.617500        3.1349200
       81033.000        72.650500        3.1295500
       81035.000        72.689300        3.1224800
       81038.000        72.743100        3.1184100
       81040.000        72.776400        3.1157000
       81043.000        72.824000        3.1160600
       81045.000        72.854000        3.1163000
       81050.000        72.925200        3.1215400
       81055.000        72.992700        3.1294000
       81060.000        73.057400        3.1382500
       81065.000        73.119700        3.1468100
       81070.000        73.180000        3.1543300
       81078.000        73.271200        3.1632200
       81085.000        73.345800        3.1675900
       81093.000        73.424400        3.1691200
       81100.000        73.487400        3.1682600
       81108.000        73.552700        3.1656100
       81115.000        73.604800        3.1632900
       81123.000        73.659500        3.1607800
       81130.000        73.703500        3.1585800
       81135.000        73.733100        3.1581900
       81140.000        73.762000        3.1578100
       81150.000        73.816000        3.1570400
       81165.000        73.891500        3.1592300
       81180.000        73.962600        3.1614100
       81190.000        74.007600        3.1623700
       81200.000        74.051100        3.1633400
       81215.000        74.112300        3.1618500
       81230.000        74.168300        3.1603700
       81240.000        74.203500        3.1593800
       81250.000        74.237100        3.1583900
       81270.000        74.300200        3.1567900
       81300.000        74.386100        3.1543800
       81320.000        74.438600        3.1536900
       81350.000        74.512100        3.1526500
       81380.000        74.580100        3.1516000
       81400.000        74.622700        3.1509100
       81420.000        74.663400        3.1497500
       81450.000        74.720800        3.1480100
       81470.000        74.757000        3.1468500
       81500.000        74.808500        3.1451100
       81520.000        74.841100        3.1439500
       81550.000        74.887900        3.1422100
       81600.000        74.960900        3.1393100
       81650.000        75.028100        3.1355800
       81700.000        75.090000        3.1318600
       81750.000        75.147400        3.1281300
       81800.000        75.200600        3.1244100
       81850.000        75.250400        3.1218700
       81900.000        75.297900        3.1193200
       81950.000        75.343000        3.1167700
       82000.000        75.385900        3.1142300
       82050.000        75.426900        3.1119000
       82100.000        75.466200        3.1095700
       82200.000        75.540800        3.1049000
       82280.000        75.596500        3.0997900
       82350.000        75.642100        3.0953200
       82420.000        75.685300        3.0908400
       82500.000        75.732200        3.0857300
       82600.000        75.787400        3.0790400
       82700.000        75.838900        3.0723500
       82800.000        75.887200        3.0657100
       82900.000        75.932200        3.0590600
       83000.000        75.974800        3.0538500
       83100.000        76.015900        3.0486500
       83200.000        76.055200        3.0436100
       83300.000        76.092900        3.0385700
       83400.000        76.129300        3.0337300
       83500.000        76.164300        3.0288800
       83600.000        76.198100        3.0240400
       83700.000        76.230800        3.0192000
       83850.000        76.278100        3.0120900
       84000.000        76.323700        3.0049700
       84150.000        76.367400        2.9966400
       84300.000        76.408700        2.9883100
       84400.000        76.435300        2.9827500
       84500.000        76.461400        2.9772000
       84650.000        76.498900        2.9678200
       84800.000        76.534400        2.9584500
       84900.000        76.557000        2.9522000
       85000.000        76.578900        2.9459500
       85300.000        76.641200        2.9284700
       85500.000        76.680200        2.9168200
       85800.000        76.735300        2.8996200
       86000.000        76.769600        2.8881500
       86300.000        76.818500        2.8725900
       86500.000        76.849800        2.8622200
       86800.000        76.894600        2.8468900
       87000.000        76.923000        2.8366700
       87300.000        76.963900        2.8224700
       87500.000        76.990400        2.8130000
       87800.000        77.028700        2.7988000
       88000.000        77.053500        2.7893300
       88300.000        77.089300        2.7753400
       88500.000        77.112400        2.7660100
       88800.000        77.145800        2.7520200
       89000.000        77.167400        2.7427000
       89300.000        77.198900        2.7287000
       89500.000        77.219200        2.7193800
       89800.000        77.248800        2.7053900
       90000.000        77.268200        2.6960600
       90400.000        77.305300        2.6772500
       90800.000        77.340400        2.6584300
       91200.000        77.373900        2.6396200
       91500.000        77.398100        2.6255100
       91900.000        77.429000        2.6071200
       92300.000        77.458400        2.5887200
       92700.000        77.486600        2.5703300
       93000.000        77.507000        2.5565300
       93300.000        77.526700        2.5430500
       93500.000        77.539500        2.5340700
       93800.000        77.558100        2.5205900
       94000.000        77.570200        2.5116100
       94300.000        77.587800        2.4985100
       94500.000        77.599300        2.4897800
       94800.000        77.616000        2.4766800
       95000.000        77.626800        2.4679500
       95400.000        77.647800        2.4514100
       95800.000        77.668200        2.4348600
       96200.000        77.687900        2.4183200
       96500.000        77.702200        2.4059100
       96900.000        77.720800        2.3900300
       97300.000        77.738700        2.3741500
       97700.000        77.756000        2.3582700
       98000.000        77.768600        2.3463600
       98300.000        77.780900        2.3348400
       98500.000        77.788900        2.3271600
       99000.000        77.808400        2.3079700
       99500.000        77.827100        2.2891500
       99800.000        77.837900        2.2780100
       100000.00        77.844900        2.2705800
