;  Atomic scattering factors for Bi.
;   
;  Concatenation of data from CXRO <http://www-cxro.lbl.gov>
;  and LLNL <http://www-phys.llnl.gov/V_Div/scattering/asf.html>
;  
;  E (eV) f1 f2
;---------------
       10.000000       -9999.0000        5.5947500
       10.161700       -9999.0000        5.6358700
       10.326100       -9999.0000        5.6772900
       10.493100       -9999.0000        5.7190100
       10.662800       -9999.0000        5.7457400
       10.835300       -9999.0000        5.7564000
       11.010600       -9999.0000        5.7670700
       11.188600       -9999.0000        5.7777600
       11.369600       -9999.0000        5.7884700
       11.553500       -9999.0000        5.7834000
       11.740400       -9999.0000        5.7738700
       11.930300       -9999.0000        5.7643400
       12.123200       -9999.0000        5.7548400
       12.319300       -9999.0000        5.7453400
       12.518600       -9999.0000        5.7358600
       12.721000       -9999.0000        5.7240600
       12.926800       -9999.0000        5.6715300
       13.135900       -9999.0000        5.6194800
       13.348300       -9999.0000        5.5679200
       13.564200       -9999.0000        5.5168200
       13.783600       -9999.0000        5.4662000
       14.006600       -9999.0000        5.4106000
       14.233100       -9999.0000        5.2885000
       14.463300       -9999.0000        5.1691400
       14.697300       -9999.0000        5.0524800
       14.935000       -9999.0000        4.9384600
       15.176500       -9999.0000        4.8270000
       15.422000       -9999.0000        4.6870700
       15.671400       -9999.0000        4.5382900
       15.924900       -9999.0000        4.3942400
       16.182500       -9999.0000        4.2547500
       16.444200       -9999.0000        4.0712500
       16.710200       -9999.0000        3.8724100
       16.980500       -9999.0000        3.6832800
       17.255100       -9999.0000        3.5038800
       17.534200       -9999.0000        3.3336500
       17.817800       -9999.0000        3.1716700
       18.106000       -9999.0000        3.0175800
       18.398900       -9999.0000        2.8632400
       18.696400       -9999.0000        2.7158200
       18.998800       -9999.0000        2.5759900
       19.306100       -9999.0000        2.4380500
       19.618400       -9999.0000        2.2890900
       19.935700       -9999.0000        2.1492300
       20.258200       -9999.0000        2.0204200
       20.585800       -9999.0000        1.9004700
       20.918800       -9999.0000        1.8076900
       21.257100       -9999.0000        1.7597500
       21.600900       -9999.0000        1.7130900
       21.950300       -9999.0000        1.6676900
       22.305300       -9999.0000        1.6621700
       22.666100       -9999.0000        1.6566700
       23.032700       -9999.0000        1.6686900
       23.405300       -9999.0000        1.7094100
       23.783800       -9999.0000        1.8360300
       24.168500       -9999.0000        3.1767900
       24.559400       -9999.0000        5.2604400
       24.956600       -9999.0000        5.6500100
       25.360300       -9999.0000        6.0101400
       25.770500       -9999.0000        6.2078100
       26.187300       -9999.0000        6.4120000
       26.610900       -9999.0000        6.5961300
       27.041300       -9999.0000        6.6692000
       27.478600       -9999.0000        6.7430900
       27.923100       -9999.0000        6.7115600
       28.374700       -9999.0000        6.4819400
       28.833700       -9999.0000        6.2213100
       29.300000        1.1081200        5.9538300
       29.773900        1.1994000        5.6130700
       30.255500       0.99776400        5.1116000
       30.744900       0.64363000        4.9939600
       31.242100       0.38594300        4.9225500
       31.747500       0.13639300        4.8501100
       32.260900      -0.15970600        4.7592200
       32.782700      -0.57340300        4.7468600
       33.313000      -0.93882800        4.8490000
       33.851800       -1.3083400        4.9632300
       34.399300       -1.6715300        5.1470200
       34.955700       -2.0413300        5.3376100
       35.521100       -2.4503200        5.6105300
       36.095600       -2.8087900        5.9396200
       36.679400       -3.1589300        6.2879900
       37.272700       -3.5402600        6.7199700
       37.875500       -3.8468600        7.2353700
       38.488200       -4.0923800        7.7903100
       39.110700       -4.2581000        8.3845300
       39.743200       -4.3853200        8.9213400
       40.386100       -4.5043600        9.4925100
       41.039300       -4.5831300        10.100300
       41.703100       -4.5832100        10.746900
       42.377600       -4.5067200        11.298200
       43.063000       -4.4720600        11.830400
       43.759500       -4.4365800        12.387700
       44.467300       -4.3782400        12.971300
       45.186500       -4.2668900        13.558800
       45.917400       -4.1560300        14.122200
       46.660000       -4.0367800        14.709100
       47.414700       -3.8940800        15.320300
       48.181600       -3.7086500        15.957000
       48.960900       -3.4431600        16.620100
       49.752800       -3.1463700        17.172700
       50.557600       -2.8707200        17.738300
       51.375300       -2.5832000        18.322400
       52.206200       -2.2670300        18.925800
       53.050600       -1.8930800        19.549100
       53.908700       -1.4354800        20.105900
       54.780600       -1.0166200        20.622600
       55.666700      -0.60328900        21.152600
       56.567000      -0.16742900        21.696100
       57.482000       0.31413100        22.250800
       58.411700       0.81345200        22.758500
       59.356400        1.3178900        23.277700
       60.316500        1.8463000        23.808700
       61.292100        2.4128200        24.351900
       62.283400        3.0404900        24.879600
       63.290800        3.6787900        25.387500
       64.314500        4.3498400        25.905700
       65.354700        5.0709700        26.434500
       66.411800        5.8728000        26.974100
       67.485900        6.8390400        27.524700
       68.577500        7.8375700        27.789300
       69.686700        8.7702200        28.049700
       70.813800        9.7168500        28.312400
       71.959100        10.750300        28.577700
       73.123000        11.825700        28.658000
       74.305700        12.841300        28.701600
       75.507600        13.874800        28.745200
       76.728900        15.029100        28.789000
       77.969900        16.272100        28.506500
       79.231000        17.292300        28.089100
       80.512500        18.207500        27.677800
       81.814700        19.062700        27.248600
       83.138000        19.856600        26.817200
       84.482700        20.609900        26.392500
       85.849100        21.344800        25.974600
       87.237700        22.074200        25.531400
       88.648700        22.766000        25.077400
       90.082500        23.439800        24.631400
       91.539500        24.118300        24.193400
       93.020100        24.828800        23.763100
       94.524600        25.662200        23.340500
       96.053500        26.613400        22.548800
       97.607100        27.274300        21.610100
       99.185800        27.744600        20.710700
       100.79000        28.123300        19.848600
       102.42000        28.434100        19.022400
       104.07700        28.695700        18.230600
       105.76000        28.927600        17.471700
       107.47100        29.174900        16.744400
       109.20900        29.395300        15.886600
       110.97500        29.490200        15.037000
       112.77000        29.497800        14.232800
       114.59400        29.453900        13.471600
       116.44800        29.371700        12.751100
       118.33100        29.268800        12.069200
       120.24500        29.127100        11.378000
       122.19000        28.936300        10.724900
       124.16600        28.706800        10.109200
       126.17500        28.445900        9.5288300
       128.21500        28.155000        8.9817900
       130.28900        27.831000        8.4661700
       132.39700        27.461300        7.9801600
       134.53800        26.980400        7.5863500
       136.71400        26.596800        7.3593500
       138.92500        26.276400        7.1391300
       141.17200        25.989900        6.9255100
       143.45600        25.725200        6.7182800
       145.77600        25.479800        6.5172500
       148.13400        25.266300        6.3222500
       150.53000        25.055600        6.0635800
       152.96400        24.809000        5.8034600
       155.43900        24.535400        5.5545100
       157.95300        24.244600        5.3162400
       160.50700        23.936500        5.0882900
       163.10300        23.610600        4.8712700
       165.74200        23.264100        4.6635100
       168.42200        22.888800        4.4646000
       171.14600        22.438200        4.2808800
       173.91500        21.997100        4.2203600
       176.72700        21.579200        4.1607000
       179.58600        21.138500        4.1383600
       182.49100        20.735100        4.1612900
       185.44200        20.345800        4.1843500
       188.44200        19.936200        4.2178200
       191.48900        19.537800        4.2834900
       194.58700        19.128200        4.3502000
       197.73400        18.720000        4.4665300
       200.93200        18.318500        4.5878600
       204.18200        17.884300        4.7222400
       207.48500        17.466800        4.9371800
       210.84000        17.071300        5.1618900
       214.25100        16.674300        5.4021000
       217.71600        16.288900        5.6731900
       221.23700        15.909700        5.9578800
       224.81600        15.514900        6.2568600
       228.45200        15.085400        6.6364600
       232.14700        14.715900        7.0937500
       235.90200        14.421800        7.5617400
       239.71700        14.142500        8.0306600
       243.59500        13.880200        8.5286800
       247.53500        13.652400        9.0575600
       251.53800        13.510100        9.6192600
       255.60700        13.384200        10.087900
       259.74100        13.234300        10.573700
       263.94200        13.086100        11.083000
       268.21100        12.948400        11.616800
       272.54900        12.828200        12.176300
       276.95700        12.732100        12.762800
       281.43700        12.680100        13.368000
       285.98900        12.640400        13.968900
       290.61500        12.619700        14.596800
       295.31500        12.628400        15.253000
       300.09200        12.679100        15.938600
       304.94500        12.789700        16.655000
       309.87800        13.025500        17.403700
       314.89000        13.308400        17.967700
       319.98300        13.551000        18.518000
       325.15800        13.772000        19.085100
       330.41800        14.008300        19.669600
       335.76200        14.275000        20.272000
       341.19200        14.611500        20.892800
       346.71100        14.989700        21.410500
       352.31900        15.342100        21.905700
       358.01700        15.680300        22.412400
       363.80800        16.034500        22.930800
       369.69200        16.435300        23.461200
       375.67200        16.898600        23.935900
       381.74800        17.317900        24.339600
       387.92200        17.711400        24.750100
       394.19700        18.097300        25.167500
       400.57300        18.482600        25.591900
       407.05200        18.863000        26.023500
       413.63500        19.256300        26.483300
       420.32600        19.672900        26.952000
       427.12400        20.112800        27.429000
       434.03200        20.580000        27.914500
       441.05200        21.080900        28.408500
       448.18600        21.661900        28.911300
       455.43500        22.281600        29.319400
       462.80200        22.870000        29.692700
       470.28700        23.453500        30.070700
       477.89400        24.048500        30.453500
       485.62300        24.666300        30.841200
       493.47800        25.321100        31.233800
       501.45900        26.063900        31.618100
       509.57000        26.798500        31.877800
       517.81200        27.517400        32.139700
       526.18700        28.246000        32.403700
       534.69800        29.005000        32.669900
       543.34600        29.915300        32.938300
       552.13400        30.834100        32.952300
       561.06500        31.637300        32.911800
       570.13900        32.409500        32.864200
       579.36100        33.135300        32.763600
       588.73200        33.817300        32.648500
       598.25400        34.457200        32.524200
       607.93000        35.064700        32.398300
       617.76300        35.647700        32.274400
       627.75500        36.219700        32.150300
       637.90800        36.777700        32.005900
       648.22600        37.310300        31.836300
       658.71100        37.793700        31.650600
       669.36500        38.232800        31.466200
       680.19100        38.622700        31.276400
       691.19300        38.931600        31.088900
       702.37200        39.079000        30.952800
       713.73300        39.162900        31.093200
       725.27700        39.452200        31.427700
       737.00800        39.895900        31.766000
       748.92800        40.460800        32.107800
       761.04200        41.175100        32.444700
       773.35100        42.098900        32.693800
       785.85900        43.142400        32.648500
       798.57000        43.990500        32.359800
       811.48600        44.708700        32.073500
       824.61100        45.362300        31.789900
       837.94900        45.978400        31.508800
       851.50200        46.566800        31.212400
       865.27400        47.124700        30.897300
       879.26900        47.631900        30.566400
       893.49100        48.093800        30.239100
       907.94300        48.509500        29.915300
       922.62800        48.836400        29.594900
       937.55100        49.154000        29.432900
       952.71500        49.508700        29.313800
       968.12400        49.937300        29.232100
       983.78300        50.432500        29.150800
       999.69500        51.005800        29.040900
       1015.8600        51.703700        28.900600
       1032.2900        52.336900        28.466900
       1048.9900        52.862800        28.036400
       1065.9600        53.316800        27.611400
       1083.2000        53.729400        27.192500
       1100.7200        54.109300        26.779500
       1118.5200        54.461900        26.372300
       1136.6100        54.790600        25.970900
       1155.0000        55.098300        25.575600
       1173.6800        55.387800        25.186200
       1192.6600        55.659900        24.801700
       1211.9500        55.915900        24.422800
       1231.5500        56.157000        24.049400
       1251.4700        56.383900        23.681200
       1271.7200        56.597600        23.318500
       1292.2900        56.799300        22.961200
       1313.1900        56.989100        22.608500
       1334.4300        57.167400        22.261000
       1356.0100        57.335400        21.918700
       1377.9400        57.493100        21.580600
       1400.2300        57.641300        21.247400
       1422.8800        57.780900        20.919200
       1445.8900        57.913800        20.595500
       1469.2800        58.043400        20.272600
       1493.0400        58.170700        19.948500
       1517.1900        58.281100        19.604800
       1541.7300        58.369500        19.263400
       1566.6700        58.439200        18.927700
       1592.0100        58.493600        18.596700
       1617.7600        58.533100        18.271100
       1643.9200        58.558900        17.951100
       1670.5100        58.571600        17.636300
       1697.5300        58.571400        17.326500
       1724.9900        58.565200        17.021400
       1752.8900        58.543900        16.707400
       1781.2400        58.500900        16.393900
       1810.0500        58.435700        16.081900
       1839.3200        58.347700        15.775800
       1869.0700        58.238700        15.475400
       1899.3000        58.108200        15.180500
       1930.0200        57.954800        14.890600
       1961.2400        57.776900        14.605800
       1992.9600        57.569500        14.325800
       2025.2000        57.345000        14.059900
       2057.9500        57.089800        13.780000
       2091.2400        56.790700        13.503500
       2125.0600        56.447200        13.230100
       2159.4300        56.053500        12.960100
       2194.3600        55.600100        12.692100
       2229.8500        55.076200        12.428700
       2265.9200        54.467800        12.168300
       2302.5700        53.752800        11.910600
       2339.8100        52.902000        11.656800
       2377.6600        51.868900        11.405500
       2416.1100        50.579400        11.158300
       2455.1900        48.899100        10.914100
       2494.9000        46.539500        10.673200
       2535.2600        42.648800        10.435400
       2576.2600        28.118900        10.201800
       2579.5000        9.1391800        10.183800
       2579.7000        9.1424600        27.183900
       2617.9300        40.336300        26.572500
       2660.2700        41.467000        25.921300
       2687.5000        23.224800        25.516400
       2687.7000        23.248900        37.019500
       2703.3000        42.281200        36.698200
       2747.0300        49.114300        35.822000
       2791.4600        52.633900        34.967600
       2836.6100        55.105100        34.133500
       2882.4900        56.992800        33.320100
       2929.1100        58.481800        32.527600
       2976.4800        59.657700        31.754900
       3024.6300        60.549000        31.001200
       3073.5500        61.124100        30.266800
       3123.2600        61.182400        29.549600
       3173.7800        57.880300        28.850100
       3176.8000        52.762400        28.809200
       3177.0000        52.766900        33.535000
       3225.1100        62.894500        32.789700
       3277.2700        64.749100        32.012400
       3330.2800        66.039700        31.254700
       3384.1500        67.059900        30.516100
       3438.8800        67.899100        29.795100
       3494.5000        68.593200        29.092000
       3551.0200        69.150000        28.407300
       3608.4600        69.541800        27.740300
       3666.8200        69.569500        27.088600
       3696.2000        66.935900        26.770300
       3696.4000        66.937900        28.375000
       3726.1300        70.111000        28.045300
       3786.4000        71.132400        27.396600
       3847.6400        71.777300        26.764800
       3909.8700        72.233300        26.147400
       3973.1100        72.390200        25.545100
       3999.0000        70.876000        25.305300
       3999.2000        70.877400        26.270200
       4037.3800        72.981700        25.935000
       4102.6800        73.729000        25.378700
       4169.0300        74.292700        24.831200
       4236.4600        74.777200        24.290700
       4304.9800        75.208500        23.758800
       4374.6200        75.600200        23.236000
       4445.3700        75.958400        22.720300
       4517.2700        76.287200        22.213700
       4590.3300        76.591000        21.715500
       4664.5800        76.871200        21.225200
       4740.0300        77.129600        20.743700
       4816.6900        77.368600        20.270900
       4894.6000        77.589600        19.806700
       4973.7700        77.793700        19.350600
       5054.2100        77.981800        18.903300
       5135.9600        78.155200        18.464300
       5219.0300        78.314600        18.033800
       5303.4400        78.461000        17.611500
       5389.2200        78.594800        17.197500
       5476.3900        78.717000        16.791900
       5564.9700        78.828200        16.394600
       5654.9800        78.929000        16.005300
       5746.4400        79.019900        15.623800
       5839.3900        79.101300        15.250300
       5933.8300        79.173800        14.884800
       6029.8100        79.238000        14.527200
       6127.3300        79.294000        14.176900
       6226.4400        79.342300        13.834500
       6327.1500        79.383400        13.499500
       6429.4800        79.417600        13.171900
       6533.4800        79.445200        12.851500
       6639.1500        79.466500        12.538300
       6746.5400        79.481800        12.232300
       6855.6500        79.491400        11.932900
       6966.5400        79.495300        11.640700
       7079.2200        79.494100        11.355100
       7193.7200        79.487800        11.076000
       7310.0700        79.476500        10.803300
       7428.3100        79.460500        10.537300
       7548.4500        79.440100        10.277400
       7670.5400        79.415100        10.023600
       7794.6100        79.385900        9.7760200
       7920.6800        79.352700        9.5342100
       8048.7900        79.315300        9.2980400
       8178.9800        79.273700        9.0677600
       8311.2600        79.228300        8.8430500
       8445.6900        79.179200        8.6237700
       8582.2900        79.125900        8.4095100
       8721.1100        79.068600        8.2008600
       8862.1600        79.007500        7.9974300
       9005.5000        78.942400        7.7985900
       9151.1600        78.873100        7.6050400
       9299.1700        78.799800        7.4159500
       9449.5800        78.722000        7.2317200
       9602.4200        78.639700        7.0521200
       9757.7300        78.552900        6.8772100
       9915.5500        78.463800        6.7065000
       10075.900        78.369000        6.5342600
       10238.900        78.262900        6.3667300
       10404.500        78.149100        6.2038100
       10572.800        78.026800        6.0453800
       10743.800        77.895300        5.8913600
       10917.600        77.753500        5.7416400
       11094.200        77.600000        5.5961100
       11273.600        77.432900        5.4546900
       11455.900        77.250000        5.3172700
       11641.200        77.047900        5.1837700
       11829.500        76.822100        5.0540700
       12020.800        76.566500        4.9281000
       12215.300        76.271500        4.8057600
       12412.800        75.922400        4.6869700
       12613.600        75.494000        4.5716200
       12817.600        74.937800        4.4596500
       13025.000        74.139900        4.3509500
       13235.600        72.701700        4.2454600
       13418.500        58.288700        4.1572700
       13418.700        58.289200        10.221800
       13449.700        69.405700        10.180600
       13667.200        73.475500        9.8983800
       13888.300        74.678800        9.6240100
       14112.900        75.358100        9.3572500
       14341.200        75.785000        9.0978900
       14573.100        76.045300        8.8457100
       14808.900        76.167500        8.6005400
       15048.400        76.144700        8.3621500
       15291.800        75.917500        8.1303900
       15539.100        75.219600        7.9050500
       15711.000        68.067100        7.7541500
       15711.200        68.067900        10.869800
       15790.400        74.572600        10.789400
       16045.800        75.994500        10.537000
       16305.400        76.158900        10.290600
       16387.400        73.428000        10.214700
       16387.600        73.428500        11.583200
       16569.100        77.072000        11.402800
       16837.100        77.908300        11.145100
       17109.400        78.481500        10.891200
       17386.100        78.936800        10.641200
       17667.400        79.318600        10.395000
       17953.100        79.648100        10.152800
       18243.500        79.937300        9.9146400
       18538.600        80.194400        9.6805300
       18838.400        80.424500        9.4504900
       19143.100        80.632000        9.2245700
       19452.700        80.819600        9.0027600
       19767.400        80.990100        8.7850600
       20087.100        81.145200        8.5714900
       20412.000        81.286600        8.3620300
       20742.100        81.415600        8.1566800
       21077.600        81.533400        7.9554000
       21418.500        81.641100        7.7581900
       21765.000        81.739400        7.5650100
       22117.000        81.829100        7.3758400
       22474.700        81.911000        7.1906500
       22838.200        81.985500        7.0093800
       23207.600        82.053300        6.8320200
       23583.000        82.114800        6.6585000
       23964.400        82.170500        6.4887900
       24352.000        82.220800        6.3228400
       24745.900        82.266100        6.1606100
       25146.200        82.306600        6.0020400
       25552.900        82.342800        5.8470800
       25966.200        82.374800        5.6956800
       26386.100        82.403000        5.5477700
       26812.900        82.427700        5.4033200
       27246.600        82.448900        5.2622600
       27687.300        82.467100        5.1245300
       28135.100        82.482300        4.9900800
       28590.200        82.494700        4.8588500
       29052.600        82.504600        4.7307900
       29522.500        82.512000        4.6058200
       30000.000        82.517200        4.4839100
       30200.000        82.348600        4.4202700
       30400.000        82.350000        4.3716600
       30600.000        82.351100        4.3247300
       30800.000        82.351700        4.2778000
       31200.000        82.352000        4.1871200
       31500.000        82.351500        4.1211200
       31900.000        82.350000        4.0356700
       32300.000        82.347600        3.9530300
       32600.000        82.345300        3.8928100
       33000.000        82.341800        3.8147800
       33400.000        82.337600        3.7384800
       33800.000        82.332400        3.6646000
       34100.000        82.328000        3.6107100
       34500.000        82.321700        3.5407900
       34900.000        82.314800        3.4730100
       35300.000        82.307400        3.4072500
       35700.000        82.299600        3.3434500
       36030.000        82.292800        3.2922400
       36500.000        82.282800        3.2214300
       37000.000        82.271700        3.1487300
       37500.000        82.260200        3.0786200
       38000.000        82.248500        3.0109600
       38500.000        82.236400        2.9454000
       39000.000        82.224000        2.8820800
       39500.000        82.211300        2.8209000
       40000.000        82.198600        2.7617600
       40800.000        82.177700        2.6703700
       41500.000        82.158800        2.5942800
       42300.000        82.136700        2.5114600
       43000.000        82.117100        2.4423800
       43800.000        82.094500        2.3668800
       44500.000        82.074700        2.3038100
       45300.000        82.051700        2.2348400
       46000.000        82.031700        2.1770100
       46500.000        82.017200        2.1371400
       47000.000        82.002800        2.0984200
       47500.000        81.988200        2.0607900
       48000.000        81.973700        2.0242300
       48500.000        81.959300        1.9886800
       49000.000        81.944800        1.9541100
       50000.000        81.916000        1.8877600
       51000.000        81.887000        1.8243200
       52000.000        81.858000        1.7641700
       52800.000        81.834700        1.7182800
       53640.600        81.810100        1.6720600
       54200.000        81.793700        1.6423700
       54800.000        81.776200        1.6114500
       55400.000        81.758600        1.5813900
       56000.000        81.741000        1.5521900
       56800.000        81.717400        1.5145500
       57530.000        81.695900        1.4814500
       58000.000        81.682000        1.4607400
       58500.000        81.667100        1.4392000
       59540.000        81.636300        1.3959800
       59800.000        81.628500        1.3854900
       60000.000        81.622600        1.3775100
       60800.000        81.598500        1.3461000
       61500.000        81.577400        1.3195300
       62300.000        81.552800        1.2901600
       63000.000        81.531300        1.2652900
       64000.000        81.500100        1.2310600
       65000.000        81.468400        1.1982600
       65900.000        81.439400        1.1698400
       66830.000        81.408900        1.1415600
       67400.000        81.389900        1.1247600
       68000.000        81.369600        1.1074900
       69000.000        81.335000        1.0796200
       70000.000        81.299500        1.0528300
       71000.000        81.262800        1.0270100
       71500.000        81.244000        1.0145900
       72000.000        81.224800        1.0021700
       72800.000        81.193300       0.98322300
       73500.000        81.164900       0.96664400
       74200.000        81.135500       0.95095800
       74960.000        81.102500       0.93392700
       75500.000        81.078200       0.92226500
       76000.000        81.055100       0.91167000
       76600.000        81.026400       0.89931900
       77110.000        81.001200       0.88882000
       77900.000        80.960500       0.87329300
       78600.000        80.922400       0.85953500
       79300.000        80.882300       0.84629700
       79700.000        80.858400       0.83891400
       80000.000        80.839900       0.83337600
       80400.000        80.814400       0.82622500
       80800.000        80.788000       0.81907300
       81200.000        80.760500       0.81192200
       81500.000        80.739100       0.80655800
       81900.000        80.709500       0.79976100
       82300.000        80.678500       0.79296300
       82700.000        80.646100       0.78616600
       83000.000        80.620700       0.78106800
       83300.000        80.594300       0.77617800
       83500.000        80.576100       0.77291900
       83800.000        80.547800       0.76802900
       84000.000        80.528200       0.76476900
       84300.000        80.497800       0.76003700
       84500.000        80.476700       0.75688300
       84800.000        80.443700       0.75215100
       85000.000        80.420800       0.74899700
       85400.000        80.372300       0.74293900
       85600.000        80.346700       0.73990900
       85800.000        80.320000       0.73688000
       86000.000        80.292300       0.73385100
       86200.000        80.263300       0.73082200
       86350.000        80.240700       0.72855000
       86500.000        80.217300       0.72627800
       86700.000        80.184700       0.72339000
       86900.000        80.150500       0.72050300
       87100.000        80.114500       0.71761500
       87300.000        80.076300       0.71472800
       87500.000        80.035900       0.71184000
       87700.000        79.992900       0.70895200
       87850.000        79.958700       0.70678700
       88000.000        79.922800       0.70462100
       88150.000        79.884800       0.70253900
       88300.000        79.844500       0.70045700
       88400.000        79.816300       0.69906900
       88500.000        79.786900       0.69768100
       88650.000        79.740300       0.69559800
       88800.000        79.690200       0.69351600
       88900.000        79.654800       0.69212800
       89000.000        79.617400       0.69074000
       89080.000        79.585900       0.68966300
       89150.000        79.557200       0.68872100
       89230.000        79.522900       0.68764500
       89300.000        79.491400       0.68670300
       89400.000        79.443900       0.68535700
       89450.000        79.418800       0.68468400
       89500.000        79.392900       0.68401100
       89580.000        79.349200       0.68293500
       89650.000        79.308700       0.68199300
       89730.000        79.259400       0.68091600
       89800.000        79.213300       0.67997400
       89850.000        79.178500       0.67930200
       89900.000        79.141900       0.67862900
       89950.000        79.103400       0.67795600
       90000.000        79.062600       0.67728300
       90020.000        79.045700       0.67701800
       90050.000        79.019500       0.67662100
       90100.000        78.973600       0.67595800
       90150.000        78.924600       0.67529600
       90200.000        78.872200       0.67463300
       90250.000        78.815700       0.67397100
       90300.000        78.754400       0.67330900
       90350.000        78.687700       0.67264600
       90380.000        78.644500       0.67224900
       90400.000        78.614300       0.67198400
       90420.000        78.582800       0.67172300
       90450.000        78.532900       0.67133100
       90470.000        78.497600       0.67106900
       90500.000        78.441400       0.67067700
       90520.000        78.401500       0.67041600
       90550.000        78.337300       0.67002400
       90570.000        78.291200       0.66976300
       90600.000        78.216400       0.66937100
       90615.000        78.175900       0.66917500
       90630.000        78.133200       0.66897900
       90650.000        78.072200       0.66871700
       90670.000        78.005900       0.66845600
       90690.000        77.933300       0.66819500
       90710.000        77.852900       0.66793300
       90720.000        77.809200       0.66780300
       90730.000        77.763000       0.66767200
       90740.000        77.713700       0.66754100
       90750.000        77.661100       0.66741100
       90758.000        77.616200       0.66730600
       90765.000        77.574600       0.66721500
       90773.000        77.524200       0.66711000
       90780.000        77.477200       0.66701900
       90790.000        77.404500       0.66688800
       90800.000        77.324300       0.66675700
       90810.000        77.234600       0.66662700
       90815.000        77.185500       0.66656100
       90820.000        77.133100       0.66649600
       90825.000        77.076800       0.66643100
       90830.000        77.016100       0.66636500
       90835.000        76.950100       0.66630000
       90840.000        76.878200       0.66623500
       90845.000        76.798500       0.66616900
       90850.000        76.709600       0.66610400
       90855.000        76.609300       0.66603900
       90860.000        76.493800       0.66597300
       90863.000        76.415100       0.66593400
       90865.000        76.357800       0.66590800
       90868.000        76.263000       0.66586900
       90870.000        76.192700       0.66584300
       90873.000        76.073600       0.66580400
       90875.000        75.982500       0.66577700
       90878.000        75.822400       0.66573800
       90880.000        75.694500       0.66571200
       90881.500        75.582600       0.66569200
       90883.000        75.452700       0.66567300
       90885.000        75.240000       0.66564700
       90887.000        74.955900       0.66562100
       90888.500        74.662400       0.66560100
       90890.000        74.238700       0.66558100
       90891.000        73.821700       0.66556800
       90892.000        73.183700       0.66555500
       90892.700        72.471300       0.66554600
       90893.400        71.255500       0.66553700
       90893.500        71.450300        1.3861200
       90893.500        71.445000        1.3861200
       90893.700        71.879900        2.8273000
       90893.900        72.310500        4.2684700
       90894.300        73.169200        7.1508200
       90895.200        75.084000        13.636100
       90897.000        78.822500       0.66549000
       90898.100        77.073700       0.66547600
       90899.100        75.860700       0.66546300
       90900.000        75.731900       0.66545200
       90901.000        75.725900        3.9999600
       90901.900        75.729000       0.94215900
       90902.800        75.754000        1.3205600
       90903.900        75.252100        2.0373300
       90905.000        75.224900        2.9968500
       90906.000        75.422800        3.0012700
       90907.000        75.747300        3.0057700
       90908.000        75.842300        3.0102500
       90909.000        75.916200        3.0147200
       90910.000        75.974600        3.0192100
       90911.000        76.025700        3.0237000
       90912.500        76.090300        3.0329900
       90914.000        76.147400        3.0422900
       90915.000        76.183100        3.0494000
       90916.000        76.217600        3.0565000
       90917.000        76.250100        3.0636100
       90918.000        76.281900        3.0707200
       90919.000        76.312800        3.0778300
       90920.000        76.343300        3.0849500
       90921.500        76.387900        3.0928500
       90923.000        76.430400        3.1007600
       90925.000        76.485900        3.1113100
       90928.000        76.564400        3.1200200
       90930.000        76.614400        3.1258400
       90933.000        76.684400        3.1282200
       90935.000        76.728200        3.1298100
       90938.000        76.789400        3.1279600
       90940.000        76.827200        3.1267300
       90943.000        76.880200        3.1226900
       90945.000        76.913000        3.1199900
       90948.000        76.958600        3.1154600
       90950.000        76.986700        3.1124400
       90953.000        77.026200        3.1085100
       90955.000        77.050800        3.1058900
       90960.000        77.107700        3.1013500
       90965.000        77.159300        3.0991000
       90970.000        77.207000        3.0989200
       90975.000        77.252700        3.1007800
       90980.000        77.296400        3.1026500
       90987.000        77.355400        3.1065100
       90995.000        77.420100        3.1102700
       91002.000        77.473600        3.1114200
       91010.000        77.531300        3.1127400
       91020.000        77.598100        3.1107800
       91030.000        77.658100        3.1088200
       91040.000        77.713200        3.1070200
       91050.000        77.763600        3.1052300
       91060.000        77.810600        3.1056200
       91070.000        77.855100        3.1060000
       91090.000        77.939700        3.1067700
       91110.000        78.016600        3.1064400
       91130.000        78.087800        3.1061100
       91150.000        78.152200        3.1051000
       91170.000        78.210600        3.1040900
       91185.000        78.252300        3.1033300
       91200.000        78.292300        3.1025700
       91220.000        78.342900        3.1014700
       91240.000        78.390200        3.1003700
       91260.000        78.434900        3.0992700
       91280.000        78.477200        3.0981700
       91310.000        78.536700        3.0965200
       91350.000        78.609600        3.0943200
       91380.000        78.660100        3.0932400
       91420.000        78.723400        3.0918000
       91460.000        78.782500        3.0903700
       91500.000        78.838200        3.0889300
       91540.000        78.890400        3.0863700
       91580.000        78.939200        3.0838000
       91610.000        78.973900        3.0818800
       91650.000        79.017900        3.0793200
       91690.000        79.059500        3.0767600
       91730.000        79.099100        3.0741900
       91760.000        79.127500        3.0722700
       91800.000        79.163600        3.0697100
       91850.000        79.206600        3.0671100
       91900.000        79.247600        3.0645000
       91950.000        79.286600        3.0619000
       92000.000        79.323600        3.0593000
       92080.000        79.379700        3.0563600
       92150.000        79.426500        3.0537900
       92230.000        79.477300        3.0508500
       92300.000        79.520000        3.0482800
       92350.000        79.549500        3.0457400
       92400.000        79.577800        3.0432000
       92500.000        79.631800        3.0381200
       92580.000        79.672700        3.0333800
       92650.000        79.706600        3.0292300
       92730.000        79.743700        3.0244900
       92800.000        79.774700        3.0203400
       92900.000        79.816900        3.0143700
       93000.000        79.856400        3.0084000
       93150.000        79.912400        3.0010600
       93300.000        79.965300        2.9937200
       93400.000        79.998800        2.9888200
       93500.000        80.030800        2.9839300
       93650.000        80.076800        2.9774300
       93800.000        80.120900        2.9709300
       93900.000        80.149100        2.9666000
       94000.000        80.176500        2.9622700
       94150.000        80.216300        2.9559300
       94300.000        80.254500        2.9495900
       94500.000        80.303800        2.9411300
       94800.000        80.373100        2.9264500
       94900.000        80.394900        2.9215600
       95000.000        80.416300        2.9166700
       95200.000        80.457500        2.9060700
       95400.000        80.496100        2.8954600
       95600.000        80.532800        2.8848600
       95800.000        80.567500        2.8742600
       96000.000        80.600700        2.8643500
       96200.000        80.632600        2.8544300
       96350.000        80.655700        2.8470000
       96500.000        80.677900        2.8395600
       96700.000        80.706700        2.8302300
       96900.000        80.734500        2.8209000
       97100.000        80.761300        2.8115700
       97300.000        80.786900        2.8022400
       97500.000        80.811800        2.7936900
       97700.000        80.836100        2.7851400
       98000.000        80.871400        2.7723200
       98300.000        80.905300        2.7598800
       98500.000        80.927200        2.7515800
       98800.000        80.959000        2.7391400
       99000.000        80.979500        2.7308400
       99300.000        81.009400        2.7188900
       99500.000        81.028900        2.7109300
       99800.000        81.057500        2.6989800
       99900.000        81.066900        2.6949900
       100000.00        81.076300        2.6910100
