;  Atomic scattering factors for Ca.
;   
;  Concatenation of data from CXRO <http://www-cxro.lbl.gov>
;  and LLNL <http://www-phys.llnl.gov/V_Div/scattering/asf.html>
;  
;  E (eV) f1 f2
;---------------
       10.000000       -9999.0000      0.042804700
       10.161700       -9999.0000      0.045269000
       10.326100       -9999.0000      0.047875000
       10.493100       -9999.0000      0.050631100
       10.662800       -9999.0000      0.053545900
       10.835300       -9999.0000      0.056628400
       11.010600       -9999.0000      0.059888500
       11.188600       -9999.0000      0.063336200
       11.369600       -9999.0000      0.066341200
       11.553500       -9999.0000      0.069222200
       11.740400       -9999.0000      0.072228400
       11.930300       -9999.0000      0.075365200
       12.123200       -9999.0000      0.078638100
       12.319300       -9999.0000      0.081290500
       12.518600       -9999.0000      0.083784700
       12.721000       -9999.0000      0.086355500
       12.926800       -9999.0000      0.089005200
       13.135900       -9999.0000      0.091523400
       13.348300       -9999.0000      0.093797200
       13.564200       -9999.0000      0.096127500
       13.783600       -9999.0000      0.098515800
       14.006600       -9999.0000       0.10096300
       14.233100       -9999.0000       0.10355100
       14.463300       -9999.0000       0.10668200
       14.697300       -9999.0000       0.10990800
       14.935000       -9999.0000       0.11323100
       15.176500       -9999.0000       0.11665500
       15.422000       -9999.0000       0.12017800
       15.671400       -9999.0000       0.12337700
       15.924900       -9999.0000       0.12666100
       16.182500       -9999.0000       0.13003300
       16.444200       -9999.0000       0.13349300
       16.710200       -9999.0000       0.13704700
       16.980500       -9999.0000       0.14073900
       17.255100       -9999.0000       0.14454600
       17.534200       -9999.0000       0.14845600
       17.817800       -9999.0000       0.15247200
       18.106000       -9999.0000       0.15619600
       18.398900       -9999.0000       0.15970700
       18.696400       -9999.0000       0.16329700
       18.998800       -9999.0000       0.16696700
       19.306100       -9999.0000       0.17096900
       19.618400       -9999.0000       0.17622200
       19.935700       -9999.0000       0.18163600
       20.258200       -9999.0000       0.18721700
       20.585800       -9999.0000       0.19297000
       20.918800       -9999.0000       0.19863800
       21.257100       -9999.0000       0.20441900
       21.600900       -9999.0000       0.21036900
       21.950300       -9999.0000       0.21649300
       22.305300       -9999.0000       0.22279400
       22.666100       -9999.0000       0.22976500
       23.032700       -9999.0000       0.23699200
       23.405300       -9999.0000       0.24444600
       23.783800       -9999.0000       0.25213400
       24.168500       -9999.0000       0.26006400
       24.559400       -9999.0000       0.27013000
       24.956600       -9999.0000       0.28171100
       25.360300       -9999.0000       0.29378800
       25.770500       -9999.0000       0.30638300
       26.187300       -9999.0000       0.31951900
       26.610900       -9999.0000       0.33187800
       27.041300       -9999.0000       0.34455800
       27.478600       -9999.0000       0.37002500
       27.923100       -9999.0000       0.41399000
       28.374700       -9999.0000       0.48224500
       28.833700       -9999.0000       0.57634000
       29.300000       -9.8198500       0.79547600
       29.773900       -13.094300        1.1513700
       30.255500       -19.467200        9.4800200
       30.744900       -16.153600        13.683200
       31.242100       -13.293900        15.897400
       31.747500       -10.938900        17.447800
       32.260900       -9.1131600        18.818000
       32.782700       -7.0541700        20.163400
       33.313000       -5.0963100        20.742900
       33.851800       -3.3971400        21.339100
       34.399300       -1.7141100        21.952400
       34.955700       0.16686400        22.354900
       35.521100        1.8679000        22.554000
       36.095600        3.6078600        22.754900
       36.679400        5.6164200        22.704400
       37.272700        7.3978800        22.397700
       37.875500        9.2075200        21.930300
       38.488200        10.936300        21.343900
       39.110700        12.967900        20.727200
       39.743200        14.637000        18.860200
       40.386100        15.598500        17.161300
       41.039300        16.219000        15.615500
       41.703100        16.624000        14.208900
       42.377600        16.884700        12.929000
       43.063000        17.062800        11.764400
       43.759500        17.158400        10.598800
       44.467300        17.106400        9.5207400
       45.186500        16.970400        8.5524000
       45.917400        16.780300        7.6825300
       46.660000        16.553900        6.9011500
       47.414700        16.304600        6.1992200
       48.181600        16.042900        5.5687000
       48.960900        15.778900        5.0023200
       49.752800        15.536000        4.4935200
       50.557600        15.372000        3.9556100
       51.375300        15.078600        3.3898700
       52.206200        14.724200        2.9050500
       53.050600        14.355600        2.4895700
       53.908700        13.987700        2.1331000
       54.780600        13.619400        1.8177200
       55.666700        13.253200        1.5489600
       56.567000        12.892800        1.3199400
       57.482000        12.536500        1.1247800
       58.411700        12.185800       0.97979200
       59.356400        11.866400       0.86437500
       60.316500        11.559500       0.76254900
       61.292100        11.244000       0.68838400
       62.283400        10.961200       0.65139000
       63.290800        10.690000       0.62592100
       64.314500        10.439100       0.62200600
       65.354700        10.210300       0.63206700
       66.411800        9.9874400       0.64620300
       67.485900        9.7827200       0.68968400
       68.577500        9.5967300       0.73608900
       69.686700        9.4272100       0.79735000
       70.813800        9.2791000       0.86502200
       71.959100        9.1568400       0.93501900
       73.123000        9.0439500       0.99204300
       74.305700        8.9368700        1.0525500
       75.507600        8.8404200        1.1167400
       76.728900        8.7607300        1.1778200
       77.969900        8.6818700        1.2334400
       79.231000        8.6063700        1.2916800
       80.512500        8.5369800        1.3526800
       81.814700        8.4745400        1.4165500
       83.138000        8.4213500        1.4834500
       84.482700        8.3824300        1.5458700
       85.849100        8.3426500        1.6027300
       87.237700        8.3046300        1.6616700
       88.648700        8.2713300        1.7227800
       90.082500        8.2437400        1.7861400
       91.539500        8.2233000        1.8518300
       93.020100        8.2127800        1.9199400
       94.524600        8.2220600        1.9851400
       96.053500        8.2293100        2.0251100
       97.607100        8.2314800        2.0658800
       99.185800        8.2325100        2.1074800
       100.79000        8.2350800        2.1499100
       102.42000        8.2404400        2.1932000
       104.07700        8.2509700        2.2373600
       105.76000        8.2693700        2.2747800
       107.47100        8.2843800        2.3069700
       109.20900        8.2981600        2.3396000
       110.97500        8.3134500        2.3727000
       112.77000        8.3312400        2.4062700
       114.59400        8.3535900        2.4403200
       116.44800        8.3891600        2.4728600
       118.33100        8.4209100        2.4826500
       120.24500        8.4436000        2.4924600
       122.19000        8.4620500        2.5023200
       124.16600        8.4768200        2.5122200
       126.17500        8.4849900        2.5257000
       128.21500        8.4973500        2.5463800
       130.28900        8.5126200        2.5672300
       132.39700        8.5298500        2.5882500
       134.53800        8.5489100        2.6094500
       136.71400        8.5699500        2.6308100
       138.92500        8.5934000        2.6523500
       141.17200        8.6199400        2.6740700
       143.45600        8.6516000        2.6959700
       145.77600        8.6985500        2.7090800
       148.13400        8.7354300        2.7073400
       150.53000        8.7647200        2.7056100
       152.96400        8.7917600        2.7038700
       155.43900        8.8174300        2.7021400
       157.95300        8.8425000        2.7004100
       160.50700        8.8677900        2.6986800
       163.10300        8.8944300        2.6969500
       165.74200        8.9249000        2.6952300
       168.42200        8.9694500        2.6871400
       171.14600        9.0018200        2.6528600
       173.91500        9.0220700        2.6190100
       176.72700        9.0341800        2.5856000
       179.58600        9.0404300        2.5526100
       182.49100        9.0413500        2.5200400
       185.44200        9.0370300        2.4886000
       188.44200        9.0292400        2.4585400
       191.48900        9.0177900        2.4288500
       194.58700        9.0024700        2.3995100
       197.73400        8.9831400        2.3705200
       200.93200        8.9595600        2.3418900
       204.18200        8.9312700        2.3136000
       207.48500        8.8958100        2.2856600
       210.84000        8.8551800        2.2650200
       214.25100        8.8152000        2.2476100
       217.71600        8.7738200        2.2303300
       221.23700        8.7299900        2.2131800
       224.81600        8.6833600        2.1961600
       228.45200        8.6340400        2.1792800
       232.14700        8.5841000        2.1625300
       235.90200        8.5282700        2.1363900
       239.71700        8.4634800        2.1101700
       243.59500        8.3903800        2.0842700
       247.53500        8.3098700        2.0586900
       251.53800        8.2248500        2.0334300
       255.60700        8.1303900        1.9990700
       259.74100        8.0191800        1.9624100
       263.94200        7.8922900        1.9264200
       268.21100        7.7487800        1.8911000
       272.54900        7.5844600        1.8564200
       276.95700        7.4031400        1.8334000
       281.43700        7.2055700        1.8113300
       285.98900        6.9874500        1.7895300
       290.61500        6.7432600        1.7679900
       295.31500        6.4673500        1.7467000
       300.09200        6.1523900        1.7256500
       304.94500        5.7884700        1.7048500
       309.87800        5.3616500        1.6843000
       314.89000        4.8500400        1.6642700
       319.98300        4.2244200        1.6476100
       325.15800        3.4311600        1.6311100
       330.41800        2.3657700        1.6147700
       335.76200       0.78858300        1.5986000
       341.19200       -2.1105400        1.5825900
       346.10000       -18.334600        1.5684800
       346.30000       -18.316700        14.777800
       346.71100       -11.429400        14.763000
       352.31900      -0.74939400        14.564400
       358.01700        2.1843700        14.368500
       363.80800        3.9919400        14.175200
       369.69200        5.3088200        13.984500
       375.67200        6.3435500        13.796300
       381.74800        7.1891800        13.610700
       387.92200        7.8868600        13.431000
       394.19700        8.4518600        13.261400
       400.57300        8.9303600        13.200600
       407.05200        9.4102000        13.182400
       413.63500        9.8967200        13.164300
       420.32600        10.373000        13.146300
       427.12400        10.843600        13.128300
       434.03200        11.314800        13.110300
       441.05200        11.798500        13.092100
       448.18600        12.338800        13.054700
       455.43500        12.869000        12.920900
       462.80200        13.366000        12.721400
       470.28700        13.788600        12.489400
       477.89400        14.163000        12.261600
       485.62300        14.504100        12.038200
       493.47800        14.819200        11.818900
       501.45900        15.112400        11.603400
       509.57000        15.386900        11.391800
       517.81200        15.646400        11.183700
       526.18700        15.891500        10.978000
       534.69800        16.123600        10.773400
       543.34600        16.342600        10.571500
       552.13400        16.553900        10.373300
       561.06500        16.755200        10.169200
       570.13900        16.937600        9.9650000
       579.36100        17.108000        9.7682400
       588.73200        17.269500        9.5765100
       598.25400        17.423200        9.3892700
       607.93000        17.570500        9.2058800
       617.76300        17.712000        9.0261100
       627.75500        17.853000        8.8492300
       637.90800        17.989500        8.6680000
       648.22600        18.118500        8.4790700
       658.71100        18.231800        8.2868700
       669.36500        18.321400        8.0989000
       680.19100        18.398500        7.9343200
       691.19300        18.483800        7.7875700
       702.37200        18.581100        7.6462300
       713.73300        18.686400        7.4888100
       725.27700        18.779800        7.3219700
       737.00800        18.860100        7.1588500
       748.92800        18.934200        6.9995600
       761.04200        19.004300        6.8438400
       773.35100        19.070800        6.6903900
       785.85900        19.133900        6.5368900
       798.57000        19.190500        6.3840700
       811.48600        19.240800        6.2348400
       824.61100        19.286500        6.0891100
       837.94900        19.328000        5.9467800
       851.50200        19.365800        5.8082300
       865.27400        19.400400        5.6733700
       879.26900        19.432400        5.5420700
       893.49100        19.462200        5.4138300
       907.94300        19.489700        5.2885400
       922.62800        19.515200        5.1661300
       937.55100        19.538700        5.0461900
       952.71500        19.560200        4.9289500
       968.12400        19.580000        4.8143500
       983.78300        19.598500        4.7023600
       999.69500        19.615600        4.5926400
       1015.8600        19.633100        4.4851300
       1032.2900        19.648500        4.3766600
       1048.9900        19.661100        4.2699400
       1065.9600        19.671000        4.1649300
       1083.2000        19.678400        4.0625200
       1100.7200        19.683900        3.9626200
       1118.5200        19.687800        3.8651500
       1136.6100        19.690200        3.7701100
       1155.0000        19.691200        3.6774300
       1173.6800        19.691100        3.5870700
       1192.6600        19.689900        3.4988700
       1211.9500        19.687600        3.4128200
       1231.5500        19.684400        3.3288700
       1251.4700        19.680200        3.2470400
       1271.7200        19.675300        3.1672500
       1292.2900        19.669700        3.0894200
       1313.1900        19.663500        3.0135100
       1334.4300        19.656700        2.9394600
       1356.0100        19.649500        2.8672300
       1377.9400        19.641800        2.7967700
       1400.2300        19.633800        2.7280200
       1422.8800        19.625600        2.6609500
       1445.8900        19.617600        2.5955500
       1469.2800        19.609900        2.5311400
       1493.0400        19.603600        2.4673900
       1517.1900        19.595900        2.4012600
       1541.7300        19.585300        2.3363800
       1566.6700        19.573200        2.2732700
       1592.0100        19.559900        2.2118000
       1617.7600        19.545700        2.1520300
       1643.9200        19.530700        2.0939700
       1670.5100        19.515200        2.0374000
       1697.5300        19.499100        1.9823300
       1724.9900        19.482500        1.9287000
       1752.8900        19.465400        1.8762200
       1781.2400        19.447700        1.8250800
       1810.0500        19.429400        1.7752700
       1839.3200        19.410600        1.7268000
       1869.0700        19.391300        1.6796400
       1899.3000        19.371600        1.6337700
       1930.0200        19.351400        1.5891500
       1961.2400        19.330900        1.5457600
       1992.9600        19.309800        1.5035400
       2025.2000        19.288500        1.4628600
       2057.9500        19.267000        1.4228500
       2091.2400        19.245000        1.3839300
       2125.0600        19.222600        1.3460800
       2159.4300        19.199700        1.3092600
       2194.3600        19.176400        1.2734500
       2229.8500        19.152700        1.2386300
       2265.9200        19.128500        1.2047800
       2302.5700        19.103800        1.1718800
       2339.8100        19.078600        1.1398800
       2377.6600        19.052900        1.1087800
       2416.1100        19.026600        1.0785500
       2455.1900        18.999700        1.0491700
       2494.9000        18.972100        1.0206000
       2535.2600        18.943800       0.99285400
       2576.2600        18.914800       0.96588200
       2617.9300        18.884900       0.93967800
       2660.2700        18.854000       0.91419900
       2703.3000        18.822200       0.88946700
       2747.0300        18.789200       0.86543100
       2791.4600        18.755000       0.84206500
       2836.6100        18.719400       0.81939100
       2882.4900        18.682300       0.79734000
       2929.1100        18.643500       0.77593500
       2976.4800        18.602600       0.75512900
       3024.6300        18.559600       0.73493100
       3073.5500        18.514100       0.71531700
       3123.2600        18.465700       0.69628000
       3173.7800        18.414000       0.67777600
       3225.1100        18.358500       0.65980100
       3277.2700        18.298400       0.64236800
       3330.2800        18.233000       0.62542200
       3384.1500        18.161200       0.60897700
       3438.8800        18.081700       0.59300300
       3494.5000        17.992500       0.57748700
       3551.0200        17.891400       0.56245200
       3608.4600        17.774600       0.54782500
       3666.8200        17.636900       0.53364300
       3726.1300        17.470300       0.51987900
       3786.4000        17.260900       0.50649100
       3847.6400        16.982500       0.49351600
       3909.8700        16.576000       0.48093500
       3973.1100        15.852100       0.46870500
       4037.3800        11.190700       0.45680200
       4038.4000        8.3551700       0.45661600
       4038.6000        8.3560700        4.1430100
       4102.6800        16.043700        4.0441100
       4169.0300        16.941100        3.9457100
       4236.4600        17.477800        3.8492500
       4304.9800        17.863900        3.7545500
       4374.6200        18.165300        3.6616800
       4445.3700        18.411800        3.5706100
       4517.2700        18.619600        3.4813300
       4590.3300        18.798300        3.3938800
       4664.5800        18.954300        3.3081800
       4740.0300        19.092000        3.2242600
       4816.6900        19.214500        3.1421100
       4894.6000        19.324300        3.0616900
       4973.7700        19.423300        2.9829800
       5054.2100        19.512700        2.9060100
       5135.9600        19.594000        2.8307100
       5219.0300        19.668000        2.7571000
       5303.4400        19.735400        2.6850900
       5389.2200        19.797100        2.6147200
       5476.3900        19.853500        2.5459700
       5564.9700        19.905200        2.4787800
       5654.9800        19.952600        2.4131600
       5746.4400        19.996100        2.3490700
       5839.3900        20.036000        2.2865100
       5933.8300        20.072600        2.2253900
       6029.8100        20.106100        2.1657300
       6127.3300        20.136900        2.1075200
       6226.4400        20.165100        2.0507000
       6327.1500        20.190800        1.9952700
       6429.4800        20.214400        1.9412400
       6533.4800        20.236000        1.8884700
       6639.1500        20.255600        1.8370300
       6746.5400        20.273400        1.7868600
       6855.6500        20.289600        1.7379400
       6966.5400        20.304200        1.6902900
       7079.2200        20.317400        1.6437900
       7193.7200        20.329300        1.5985000
       7310.0700        20.339900        1.5543300
       7428.3100        20.349400        1.5113400
       7548.4500        20.357800        1.4694200
       7670.5400        20.365100        1.4285700
       7794.6100        20.371500        1.3888100
       7920.6800        20.377100        1.3500800
       8048.7900        20.381800        1.3123200
       8178.9800        20.385700        1.2755600
       8311.2600        20.388900        1.2398100
       8445.6900        20.391500        1.2049800
       8582.2900        20.393500        1.1710300
       8721.1100        20.394800        1.1379700
       8862.1600        20.395600        1.1058100
       9005.5000        20.395900        1.0745800
       9151.1600        20.395700        1.0440900
       9299.1700        20.395100        1.0144300
       9449.5800        20.394100       0.98562200
       9602.4200        20.392700       0.95753300
       9757.7300        20.390900       0.93018100
       9915.5500        20.388800       0.90364000
       10075.900        20.386500       0.87778100
       10238.900        20.383900       0.85262400
       10404.500        20.381000       0.82815100
       10572.800        20.377800       0.80434400
       10743.800        20.374500       0.78118800
       10917.600        20.370900       0.75866500
       11094.200        20.367200       0.73676000
       11273.600        20.363300       0.71545500
       11455.900        20.359200       0.69473700
       11641.200        20.355100       0.67458900
       11829.500        20.350700       0.65499600
       12020.800        20.346300       0.63594500
       12215.300        20.341800       0.61742100
       12412.800        20.337200       0.59941000
       12613.600        20.332500       0.58189800
       12817.600        20.327800       0.56487400
       13025.000        20.323000       0.54832200
       13235.600        20.318100       0.53223100
       13449.700        20.313200       0.51658900
       13667.200        20.308300       0.50138300
       13888.300        20.303400       0.48660200
       14112.900        20.298400       0.47223500
       14341.200        20.293400       0.45826900
       14573.100        20.288400       0.44469400
       14808.900        20.283400       0.43150100
       15048.400        20.278400       0.41867700
       15291.800        20.273400       0.40621400
       15539.100        20.268400       0.39410100
       15790.400        20.263500       0.38232900
       16045.800        20.258500       0.37088800
       16305.400        20.253600       0.35976900
       16569.100        20.248700       0.34896300
       16837.100        20.243800       0.33846200
       17109.400        20.239000       0.32825800
       17386.100        20.234200       0.31834100
       17667.400        20.229400       0.30870500
       17953.100        20.224700       0.29934000
       18243.500        20.220000       0.29024000
       18538.600        20.215300       0.28139800
       18838.400        20.210700       0.27280600
       19143.100        20.206100       0.26445600
       19452.700        20.201600       0.25634300
       19767.400        20.197100       0.24846000
       20087.100        20.192600       0.24086600
       20412.000        20.188300       0.23342600
       20742.100        20.184000       0.22620500
       21077.600        20.179700       0.21919600
       21418.500        20.175400       0.21239400
       21765.000        20.171200       0.20579200
       22117.000        20.167100       0.19938600
       22474.700        20.163000       0.19317100
       22838.200        20.159000       0.18713900
       23207.600        20.155000       0.18128800
       23583.000        20.151100       0.17561100
       23964.400        20.147200       0.17010400
       24352.000        20.143400       0.16476100
       24745.900        20.139700       0.15958000
       25146.200        20.136000       0.15455300
       25552.900        20.132400       0.14967900
       25966.200        20.128800       0.14495100
       26386.100        20.125300       0.14036600
       26812.900        20.121800       0.13592000
       27246.600        20.118400       0.13160900
       27687.300        20.115000       0.12742900
       28135.100        20.111800       0.12337600
       28590.200        20.108500       0.11944700
       29052.600        20.105400       0.11563800
       29522.500        20.102600       0.11194500
       30000.000        20.098100       0.10836500
       30400.000        20.093600       0.10327200
       30800.000        20.091200       0.10053700
       31200.000        20.088800      0.097908500
       31500.000        20.087100      0.096003700
       31900.000        20.084900      0.093548400
       32300.000        20.082700      0.091185400
       32600.000        20.081100      0.089470900
       33000.000        20.079000      0.087258500
       33400.000        20.077100      0.085119900
       33800.000        20.075200      0.083058300
       34100.000        20.073700      0.081560400
       34500.000        20.071700      0.079624800
       34900.000        20.070000      0.077756700
       35300.000        20.068200      0.075946600
       35700.000        20.066500      0.074196300
       36030.000        20.065000      0.072796900
       36500.000        20.063100      0.070870500
       37000.000        20.061100      0.068902900
       37500.000        20.059100      0.067015400
       38000.000        20.057200      0.065203500
       38500.000        20.055400      0.063459600
       39000.000        20.053600      0.061784000
       39500.000        20.051900      0.060173200
       40000.000        20.050200      0.058623800
       40400.000        20.048900      0.057419800
       40800.000        20.047700      0.056252100
       41100.000        20.046700      0.055399100
       41500.000        20.045500      0.054291400
       41900.000        20.044300      0.053216100
       42300.000        20.043100      0.052172000
       43000.000        20.041100      0.050416400
       43800.000        20.039000      0.048511300
       44500.000        20.037100      0.046930300
       45300.000        20.035100      0.045212800
       46000.000        20.033400      0.043781900
       46500.000        20.032200      0.042800300
       47000.000        20.031100      0.041851000
       47500.000        20.030000      0.040932400
       48000.000        20.028900      0.040043200
       48500.000        20.027800      0.039182300
       49000.000        20.026800      0.038348500
       49500.000        20.025800      0.037540600
       50000.000        20.024800      0.036757600
       50500.000        20.023900      0.035994800
       51000.000        20.023000      0.035255100
       51500.000        20.022000      0.034537600
       52000.000        20.021100      0.033841500
       52500.000        20.020300      0.033165800
       53000.000        20.019400      0.032509900
       53500.000        20.018600      0.031872900
       54000.000        20.017700      0.031254100
       54500.000        20.017000      0.030652900
       55000.000        20.016200      0.030068500
       56000.000        20.014700      0.028944600
       56800.000        20.013500      0.028089400
       57530.000        20.012500      0.027341100
       58000.000        20.011900      0.026874700
       58500.000        20.011200      0.026391400
       59540.000        20.009800      0.025426200
       59800.000        20.009500      0.025193000
       60000.000        20.009300      0.025015800
       60800.000        20.008300      0.024322200
       61500.000        20.007500      0.023738300
       62300.000        20.006600      0.023095800
       63000.000        20.005800      0.022554500
       64000.000        20.004800      0.021812900
       65000.000        20.003800      0.021106700
       65900.000        20.002800      0.020498000
       66830.000        20.001900      0.019895700
       67400.000        20.001400      0.019539300
       68000.000        20.000800      0.019174300
       69000.000        19.999900      0.018587800
       70000.000        19.999100      0.018027200
       71000.000        19.998300      0.017489700
       72000.000        19.997500      0.016975300
       72800.000        19.996900      0.016579700
       73500.000        19.996400      0.016244500
       74200.000        19.995800      0.015919200
       74960.000        19.995300      0.015576700
       75500.000        19.994900      0.015339900
       76000.000        19.994600      0.015125300
       77110.000        19.993800      0.014664400
       77900.000        19.993300      0.014348800
       78600.000        19.992900      0.014077500
       79300.000        19.992400      0.013813600
       80000.000        19.992000      0.013556900
       80800.000        19.991600      0.013271200
       81500.000        19.991200      0.013028500
       82300.000        19.990700      0.012758900
       83000.000        19.990300      0.012529700
       84000.000        19.989800      0.012212600
       85000.000        19.989200      0.011907100
       86500.000        19.988500      0.011469500
       88000.000        19.987800      0.011055100
       89000.000        19.987300      0.010790900
       90000.000        19.986900      0.010535900
       91500.000        19.986300      0.010169100
       93000.000        19.985700     0.0098206400
       94000.000        19.985200     0.0095980100
       95000.000        19.984800     0.0093826900
       96500.000        19.984300     0.0090727700
       98000.000        19.983700     0.0087776300
       99000.000        19.983400     0.0085886300
       99500.000        19.983200     0.0084963600
       100000.00        19.983100     0.0084055400
