;  Atomic scattering factors for Cr.
;   
;  Concatenation of data from CXRO <http://www-cxro.lbl.gov>
;  and LLNL <http://www-phys.llnl.gov/V_Div/scattering/asf.html>
;  
;  E (eV) f1 f2
;---------------
       10.000000       -9999.0000        1.0570000
       10.161700       -9999.0000        1.1036200
       10.326100       -9999.0000        1.1522900
       10.493100       -9999.0000        1.2031100
       10.662800       -9999.0000        1.2561800
       10.835300       -9999.0000        1.3115800
       11.010600       -9999.0000        1.3694300
       11.188600       -9999.0000        1.4291600
       11.369600       -9999.0000        1.4878900
       11.553500       -9999.0000        1.5490300
       11.740400       -9999.0000        1.6126800
       11.930300       -9999.0000        1.6789500
       12.123200       -9999.0000        1.7479400
       12.319300       -9999.0000        1.8197700
       12.518600       -9999.0000        1.8945500
       12.721000       -9999.0000        1.9724000
       12.926800       -9999.0000        2.0523600
       13.135900       -9999.0000        2.1355700
       13.348300       -9999.0000        2.2221500
       13.564200       -9999.0000        2.3122400
       13.783600       -9999.0000        2.4059800
       14.006600       -9999.0000        2.5073300
       14.233100       -9999.0000        2.6205800
       14.463300       -9999.0000        2.7389600
       14.697300       -9999.0000        2.8626800
       14.935000       -9999.0000        2.9919900
       15.176500       -9999.0000        3.0835000
       15.422000       -9999.0000        3.1675100
       15.671400       -9999.0000        3.2538200
       15.924900       -9999.0000        3.3424800
       16.182500       -9999.0000        3.4335400
       16.444200       -9999.0000        3.5271000
       16.710200       -9999.0000        3.5951300
       16.980500       -9999.0000        3.6613900
       17.255100       -9999.0000        3.7288700
       17.534200       -9999.0000        3.7976000
       17.817800       -9999.0000        3.8675900
       18.106000       -9999.0000        3.9232400
       18.398900       -9999.0000        3.9592000
       18.696400       -9999.0000        3.9954900
       18.998800       -9999.0000        4.0321200
       19.306100       -9999.0000        4.0690800
       19.618400       -9999.0000        4.0968400
       19.935700       -9999.0000        4.1199600
       20.258200       -9999.0000        4.1432100
       20.585800       -9999.0000        4.1666000
       20.918800       -9999.0000        4.1901200
       21.257100       -9999.0000        4.2137700
       21.600900       -9999.0000        4.2219700
       21.950300       -9999.0000        4.2101600
       22.305300       -9999.0000        4.1983900
       22.666100       -9999.0000        4.1866500
       23.032700       -9999.0000        4.1749400
       23.405300       -9999.0000        4.1632600
       23.783800       -9999.0000        4.0968800
       24.168500       -9999.0000        4.0277900
       24.559400       -9999.0000        3.9598600
       24.956600       -9999.0000        3.8930700
       25.360300       -9999.0000        3.8274200
       25.770500       -9999.0000        3.7628700
       26.187300       -9999.0000        3.6994100
       26.610900       -9999.0000        3.6095800
       27.041300       -9999.0000        3.4973500
       27.478600       -9999.0000        3.3886000
       27.923100       -9999.0000        3.2832400
       28.374700       -9999.0000        3.1811500
       28.833700       -9999.0000        3.0822400
       29.300000        5.9422800        2.9900400
       29.773900        5.9290900        2.9049400
       30.255500        5.9106600        2.8222600
       30.744900        5.8858400        2.7419400
       31.242100        5.8542600        2.6639100
       31.747500        5.8149800        2.5880900
       32.260900        5.7668000        2.5172300
       32.782700        5.7146500        2.4504100
       33.313000        5.6565400        2.3853700
       33.851800        5.5911900        2.3220500
       34.399300        5.5178100        2.2604100
       34.955700        5.4353500        2.1998600
       35.521100        5.3415600        2.1405900
       36.095600        5.2345400        2.0829200
       36.679400        5.1106800        2.0268100
       37.272700        4.9596400        1.9722000
       37.875500        4.7876600        1.9557800
       38.488200        4.6122200        1.9449600
       39.110700        4.4197600        1.9511600
       39.743200        4.2069400        1.9624800
       40.386100        3.9736200        2.0215100
       41.039300        3.7347700        2.0891100
       41.703100        3.4514800        2.1752000
       42.377600        3.1524200        2.3225700
       43.063000        2.7975000        2.4799300
       43.759500        2.3849800        2.8436600
       44.467300        2.0827100        3.3296800
       45.186500        1.8721200        3.8987600
       45.917400        1.7894500        4.5651000
       46.660000        1.9902200        5.3117100
       47.414700        2.2800700        5.6596300
       48.181600        2.4918000        6.0303400
       48.960900        2.7111400        6.4253200
       49.752800        3.0333100        6.7953600
       50.557600        3.3319900        7.0501600
       51.375300        3.6150200        7.3145100
       52.206200        3.9217000        7.5887800
       53.050600        4.3124900        7.8263400
       53.908700        4.6688700        7.9629800
       54.780600        5.0045900        8.1020000
       55.666700        5.3491600        8.2434600
       56.567000        5.7462200        8.3873800
       57.482000        6.1919900        8.3976600
       58.411700        6.5609500        8.3615200
       59.356400        6.8964300        8.3255400
       60.316500        7.2460000        8.2897000
       61.292100        7.5780900        8.1569900
       62.283400        7.8554900        8.0219300
       63.290800        8.0993500        7.8891100
       64.314500        8.3262300        7.7584800
       65.354700        8.5519000        7.6300200
       66.411800        8.7620000        7.4544300
       67.485900        8.9262900        7.2732700
       68.577500        9.0575500        7.0965200
       69.686700        9.1524000        6.9252200
       70.813800        9.2336800        6.7916500
       71.959100        9.3117300        6.6606500
       73.123000        9.3771000        6.5321800
       74.305700        9.4181100        6.4061800
       75.507600        9.4498100        6.3225400
       76.728900        9.4942600        6.2462900
       77.969900        9.5404000        6.1709600
       79.231000        9.5836500        6.0965400
       80.512500        9.6190500        6.0230100
       81.814700        9.6315600        5.9636100
       83.138000        9.6599100        5.9286400
       84.482700        9.6989500        5.8938700
       85.849100        9.7410400        5.8593200
       87.237700        9.7846500        5.8249600
       88.648700        9.8289200        5.7908100
       90.082500        9.8737000        5.7558500
       91.539500        9.9160000        5.7199800
       93.020100        9.9553500        5.6843200
       94.524600        9.9909400        5.6488900
       96.053500        10.020500        5.6136900
       97.607100        10.035600        5.5786900
       99.185800        10.050600        5.5775300
       100.79000        10.077300        5.5775400
       102.42000        10.110500        5.5775600
       104.07700        10.145400        5.5775700
       105.76000        10.179700        5.5775800
       107.47100        10.206200        5.5776000
       109.20900        10.235300        5.6049600
       110.97500        10.278600        5.6346900
       112.77000        10.332700        5.6645800
       114.59400        10.394600        5.6946200
       116.44800        10.464600        5.7248300
       118.33100        10.545300        5.7551900
       120.24500        10.652700        5.7746700
       122.19000        10.747900        5.7662400
       124.16600        10.832400        5.7578300
       126.17500        10.914400        5.7494200
       128.21500        10.995700        5.7410300
       130.28900        11.078100        5.7326500
       132.39700        11.167200        5.7242800
       134.53800        11.253700        5.6993400
       136.71400        11.332900        5.6744700
       138.92500        11.408400        5.6497200
       141.17200        11.481400        5.6250700
       143.45600        11.552300        5.6005200
       145.77600        11.621000        5.5760900
       148.13400        11.685500        5.5541400
       150.53000        11.753000        5.5366400
       152.96400        11.822500        5.5191900
       155.43900        11.893600        5.5018000
       157.95300        11.966700        5.4844600
       160.50700        12.042500        5.4671800
       163.10300        12.122700        5.4499500
       165.74200        12.215400        5.4327800
       168.42200        12.318500        5.3895900
       171.14600        12.401400        5.3298200
       173.91500        12.472100        5.2707000
       176.72700        12.535200        5.2122400
       179.58600        12.591900        5.1544300
       182.49100        12.642700        5.0972700
       185.44200        12.686900        5.0407300
       188.44200        12.718200        4.9848300
       191.48900        12.745300        4.9495900
       194.58700        12.781300        4.9201500
       197.73400        12.821200        4.8908800
       200.93200        12.863200        4.8617800
       204.18200        12.906600        4.8328600
       207.48500        12.951300        4.8041200
       210.84000        12.997700        4.7755400
       214.25100        13.046800        4.7471300
       217.71600        13.104500        4.7143600
       221.23700        13.154700        4.6692300
       224.81600        13.199200        4.6245300
       228.45200        13.240300        4.5802600
       232.14700        13.278700        4.5364000
       235.90200        13.315100        4.4929700
       239.71700        13.349700        4.4499600
       243.59500        13.382600        4.4073600
       247.53500        13.414200        4.3651700
       251.53800        13.445500        4.3233700
       255.60700        13.475100        4.2797300
       259.74100        13.502400        4.2364300
       263.94200        13.528100        4.1935600
       268.21100        13.552600        4.1511400
       272.54900        13.576200        4.1091300
       276.95700        13.599800        4.0675700
       281.43700        13.625400        4.0264100
       285.98900        13.654600        3.9762700
       290.61500        13.675300        3.9196700
       295.31500        13.688300        3.8638800
       300.09200        13.697100        3.8088800
       304.94500        13.702400        3.7546700
       309.87800        13.705200        3.7010800
       314.89000        13.704100        3.6459300
       319.98300        13.699000        3.5916000
       325.15800        13.690400        3.5380800
       330.41800        13.678800        3.4853600
       335.76200        13.664900        3.4334200
       341.19200        13.650200        3.3822500
       346.71100        13.640300        3.3235800
       352.31900        13.617700        3.2545700
       358.01700        13.582200        3.1869900
       363.80800        13.538500        3.1208200
       369.69200        13.486800        3.0560200
       375.67200        13.427100        2.9925700
       381.74800        13.356700        2.9312800
       387.92200        13.280200        2.8757600
       394.19700        13.197900        2.8213000
       400.57300        13.107600        2.7678600
       407.05200        13.008000        2.7154400
       413.63500        12.896100        2.6640100
       420.32600        12.772200        2.6221600
       427.12400        12.642600        2.5853500
       434.03200        12.505900        2.5490600
       441.05200        12.358100        2.5132800
       448.18600        12.197300        2.4780000
       455.43500        12.021100        2.4432100
       462.80200        11.827600        2.4089100
       470.28700        11.612800        2.3733100
       477.89400        11.371800        2.3378300
       485.62300        11.099800        2.3028800
       493.47800        10.791000        2.2684500
       501.45900        10.437200        2.2336900
       509.57000        10.023400        2.1970000
       517.81200        9.5318900        2.1609200
       526.18700        8.9360500        2.1254300
       534.69800        8.1927900        2.0905200
       543.34600        7.2204900        2.0507300
       552.13400        5.8489800        2.0095100
       561.06500        3.6322000        1.9691100
       570.13900       -1.7158800        1.9295200
       574.00000       -19.082300        1.9131100
       574.20000       -19.055400        16.973100
       579.36100       0.23645700        16.698000
       588.73200        5.4409000        16.215800
       598.25400        8.0192800        15.747500
       607.93000        9.7245200        15.292700
       617.76300        10.963300        14.851100
       627.75500        11.885600        14.422200
       637.90800        12.502200        14.084000
       648.22600        13.040500        13.894700
       658.71100        13.520900        13.707900
       669.36500        13.851300        13.600200
       680.19100        14.240800        13.668100
       691.19300        14.687600        13.736300
       702.37200        15.165200        13.804900
       713.73300        15.673900        13.873900
       725.27700        16.270500        13.943200
       737.00800        16.963800        13.881800
       748.92800        17.540900        13.646300
       761.04200        18.026900        13.414700
       773.35100        18.464700        13.187100
       785.85900        18.869300        12.963300
       798.57000        19.250400        12.743400
       811.48600        19.615400        12.527100
       824.61100        19.980900        12.314600
       837.94900        20.372800        12.075000
       851.50200        20.704600        11.760100
       865.27400        20.980700        11.453500
       879.26900        21.219700        11.154800
       893.49100        21.421000        10.864000
       907.94300        21.598500        10.608400
       922.62800        21.772100        10.369700
       937.55100        21.944700        10.136400
       952.71500        22.115900        9.9083200
       968.12400        22.278400        9.6653300
       983.78300        22.420900        9.4212100
       999.69500        22.538300        9.1832300
       1015.8600        22.640300        8.9646400
       1032.2900        22.744200        8.7609700
       1048.9900        22.847000        8.5591000
       1065.9600        22.942600        8.3588900
       1083.2000        23.031400        8.1633100
       1100.7200        23.114200        7.9723000
       1118.5200        23.191600        7.7857700
       1136.6100        23.263900        7.6036700
       1155.0000        23.331400        7.4257800
       1173.6800        23.394600        7.2520300
       1192.6600        23.453800        7.0823200
       1211.9500        23.509200        6.9165900
       1231.5500        23.561700        6.7547600
       1251.4700        23.611500        6.5954400
       1271.7200        23.658300        6.4384000
       1292.2900        23.700300        6.2832800
       1313.1900        23.738300        6.1320300
       1334.4300        23.773100        5.9844200
       1356.0100        23.804900        5.8403100
       1377.9400        23.834100        5.6996000
       1400.2300        23.860900        5.5623100
       1422.8800        23.885900        5.4284200
       1445.8900        23.909400        5.2976600
       1469.2800        23.932300        5.1691800
       1493.0400        23.954900        5.0425200
       1517.1900        23.974200        4.9136500
       1541.7300        23.989200        4.7873400
       1566.6700        24.000700        4.6642400
       1592.0100        24.009700        4.5442800
       1617.7600        24.016400        4.4274100
       1643.9200        24.021300        4.3135800
       1670.5100        24.024600        4.2027300
       1697.5300        24.026600        4.0947100
       1724.9900        24.028400        3.9894400
       1752.8900        24.028900        3.8846400
       1781.2400        24.027100        3.7818900
       1810.0500        24.023300        3.6813600
       1839.3200        24.017700        3.5834600
       1869.0700        24.010800        3.4881300
       1899.3000        24.002500        3.3952900
       1930.0200        23.993100        3.3050300
       1961.2400        23.982800        3.2171500
       1992.9600        23.971200        3.1314900
       2025.2000        23.960200        3.0495300
       2057.9500        23.948900        2.9674700
       2091.2400        23.936000        2.8873600
       2125.0600        23.922100        2.8092700
       2159.4300        23.907500        2.7332800
       2194.3600        23.892200        2.6590000
       2229.8500        23.876100        2.5867000
       2265.9200        23.859400        2.5162600
       2302.5700        23.842200        2.4476400
       2339.8100        23.824400        2.3807400
       2377.6600        23.806100        2.3156200
       2416.1100        23.787300        2.2521700
       2455.1900        23.768000        2.1904000
       2494.9000        23.748400        2.1302200
       2535.2600        23.728300        2.0716400
       2576.2600        23.707800        2.0146200
       2617.9300        23.687000        1.9591000
       2660.2700        23.665800        1.9050800
       2703.3000        23.644300        1.8524800
       2747.0300        23.622500        1.8012900
       2791.4600        23.600300        1.7514800
       2836.6100        23.577900        1.7030200
       2882.4900        23.555100        1.6558500
       2929.1100        23.532100        1.6099800
       2976.4800        23.508700        1.5653800
       3024.6300        23.485100        1.5219900
       3073.5500        23.461200        1.4797700
       3123.2600        23.437000        1.4387200
       3173.7800        23.412500        1.3987900
       3225.1100        23.387600        1.3599700
       3277.2700        23.362500        1.3222200
       3330.2800        23.336900        1.2855300
       3384.1500        23.311000        1.2498400
       3438.8800        23.284800        1.2151400
       3494.5000        23.258000        1.1814100
       3551.0200        23.230900        1.1486500
       3608.4600        23.203200        1.1167900
       3666.8200        23.175000        1.0858400
       3726.1300        23.146200        1.0557200
       3786.4000        23.116800        1.0265200
       3847.6400        23.086800       0.99808300
       3909.8700        23.055900       0.97047700
       3973.1100        23.024200       0.94362600
       4037.3800        22.991600       0.91757300
       4102.6800        22.957900       0.89224000
       4169.0300        22.923000       0.86764300
       4236.4600        22.886900       0.84375800
       4304.9800        22.849300       0.82055200
       4374.6200        22.810100       0.79799100
       4445.3700        22.769000       0.77606200
       4517.2700        22.725800       0.75477400
       4590.3300        22.680200       0.73414800
       4664.5800        22.631800       0.71406900
       4740.0300        22.580100       0.69456800
       4816.6900        22.524700       0.67563500
       4894.6000        22.464900       0.65723300
       4973.7700        22.399700       0.63938400
       5054.2100        22.328200       0.62204200
       5135.9600        22.248900       0.60522200
       5219.0300        22.159800       0.58887200
       5303.4400        22.058400       0.57300500
       5389.2200        21.940700       0.55759800
       5476.3900        21.801000       0.54263700
       5564.9700        21.629900       0.52811300
       5654.9800        21.410900       0.51400600
       5746.4400        21.110600       0.50031900
       5839.3900        20.643800       0.48703100
       5933.8300        19.643000       0.47412700
       5989.1000        12.918100       0.46682700
       5989.3000        12.918800        3.8448500
       6029.8100        19.415700        3.8076900
       6127.3300        20.800600        3.7206900
       6226.4400        21.431300        3.6349400
       6327.1500        21.849700        3.5503900
       6429.4800        22.164100        3.4670400
       6533.4800        22.415700        3.3849400
       6639.1500        22.624900        3.3041100
       6746.5400        22.803300        3.2245800
       6855.6500        22.958000        3.1464600
       6966.5400        23.094100        3.0696000
       7079.2200        23.214900        2.9940300
       7193.7200        23.322900        2.9198800
       7310.0700        23.420100        2.8471300
       7428.3100        23.508000        2.7757300
       7548.4500        23.587800        2.7056100
       7670.5400        23.660400        2.6369500
       7794.6100        23.726700        2.5695700
       7920.6800        23.787200        2.5035900
       8048.7900        23.842600        2.4389700
       8178.9800        23.893500        2.3757200
       8311.2600        23.940100        2.3137700
       8445.6900        23.982900        2.2532000
       8582.2900        24.022200        2.1938300
       8721.1100        24.058200        2.1357900
       8862.1600        24.091300        2.0790900
       9005.5000        24.121700        2.0236100
       9151.1600        24.149500        1.9694100
       9299.1700        24.175000        1.9163900
       9449.5800        24.198200        1.8646300
       9602.4200        24.219400        1.8141600
       9757.7300        24.238800        1.7648300
       9915.5500        24.256400        1.7165800
       10075.900        24.272400        1.6695400
       10238.900        24.286800        1.6236500
       10404.500        24.299900        1.5788600
       10572.800        24.311600        1.5351700
       10743.800        24.322000        1.4925600
       10917.600        24.331300        1.4510000
       11094.200        24.339600        1.4104700
       11273.600        24.346800        1.3709700
       11455.900        24.353000        1.3324600
       11641.200        24.358400        1.2949300
       11829.500        24.363000        1.2583500
       12020.800        24.366800        1.2227200
       12215.300        24.369800        1.1880000
       12412.800        24.372200        1.1541900
       12613.600        24.374000        1.1212600
       12817.600        24.375100        1.0891900
       13025.000        24.375800        1.0579600
       13235.600        24.375900        1.0275600
       13449.700        24.375500       0.99796500
       13667.200        24.374800       0.96916000
       13888.300        24.373500       0.94112600
       14112.900        24.372000       0.91384500
       14341.200        24.370000       0.88730000
       14573.100        24.367800       0.86147400
       14808.900        24.365200       0.83635000
       15048.400        24.362300       0.81191100
       15291.800        24.359200       0.78814200
       15539.100        24.355900       0.76502500
       15790.400        24.352300       0.74254500
       16045.800        24.348600       0.72068600
       16305.400        24.344600       0.69943300
       16569.100        24.340500       0.67877200
       16837.100        24.336300       0.65868600
       17109.400        24.331900       0.63916300
       17386.100        24.327400       0.62018700
       17667.400        24.322800       0.60174400
       17953.100        24.318000       0.58382200
       18243.500        24.313200       0.56640700
       18538.600        24.308400       0.54948500
       18838.400        24.303400       0.53304400
       19143.100        24.298400       0.51707200
       19452.700        24.293400       0.50155600
       19767.400        24.288300       0.48648300
       20087.100        24.283200       0.47184300
       20412.000        24.278000       0.45762400
       20742.100        24.272900       0.44381500
       21077.600        24.267700       0.43040300
       21418.500        24.262600       0.41738100
       21765.000        24.257400       0.40473500
       22117.000        24.252200       0.39245700
       22474.700        24.247100       0.38053700
       22838.200        24.241900       0.36896400
       23207.600        24.236800       0.35772900
       23583.000        24.231800       0.34682200
       23964.400        24.226700       0.33623600
       24352.000        24.221700       0.32596000
       24745.900        24.216700       0.31598700
       25146.200        24.211700       0.30630800
       25552.900        24.206800       0.29691400
       25966.200        24.202000       0.28779800
       26386.100        24.197100       0.27895200
       26812.900        24.192400       0.27036900
       27246.600        24.187600       0.26204000
       27687.300        24.183000       0.25396000
       28135.100        24.178400       0.24611900
       28590.200        24.173800       0.23851300
       29052.600        24.169400       0.23113500
       29522.500        24.165600       0.22397600
       30000.000        24.158400       0.21703300
       30400.000        24.159000       0.21840000
       30800.000        24.155500       0.21283800
       31200.000        24.152100       0.20748600
       31500.000        24.149600       0.20360400
       31900.000        24.146400       0.19859600
       32300.000        24.143100       0.19377100
       32600.000        24.140800       0.19026700
       33000.000        24.137700       0.18574200
       33400.000        24.134700       0.18135000
       33800.000        24.131800       0.17711100
       34100.000        24.129600       0.17403000
       34500.000        24.126800       0.17004500
       34900.000        24.124100       0.16619500
       35300.000        24.121400       0.16246300
       35700.000        24.118800       0.15885300
       36030.000        24.116500       0.15596300
       36500.000        24.113600       0.15198300
       37000.000        24.110500       0.14791400
       37500.000        24.107600       0.14400600
       38000.000        24.104600       0.14025100
       38500.000        24.101800       0.13661300
       39000.000        24.099000       0.13311500
       39500.000        24.096400       0.12974900
       40000.000        24.093800       0.12651000
       40400.000        24.091800       0.12396800
       40800.000        24.089800       0.12150200
       41100.000        24.088300       0.11970000
       41500.000        24.086300       0.11735900
       42300.000        24.082600       0.11287700
       43000.000        24.079400       0.10916100
       43800.000        24.076000       0.10512000
       44500.000        24.073000       0.10176500
       45300.000        24.069800      0.098117200
       46000.000        24.066900      0.095076700
       46500.000        24.065100      0.092989900
       47000.000        24.063200      0.090970400
       47500.000        24.061400      0.089015500
       48000.000        24.059600      0.087122500
       48500.000        24.057800      0.085288700
       49000.000        24.056100      0.083511700
       49500.000        24.054500      0.081789200
       50000.000        24.052800      0.080119000
       50500.000        24.051300      0.078489400
       51000.000        24.049800      0.076908500
       51500.000        24.048200      0.075374500
       52000.000        24.046700      0.073885400
       52500.000        24.045300      0.072439500
       53000.000        24.043900      0.071035300
       53500.000        24.042400      0.069671100
       54000.000        24.041000      0.068345400
       54500.000        24.039700      0.067056800
       55000.000        24.038400      0.065804000
       56000.000        24.035800      0.063392700
       56800.000        24.033900      0.061556900
       57530.000        24.032200      0.059949600
       58000.000        24.031100      0.058947500
       58500.000        24.029900      0.057908400
       59540.000        24.027600      0.055832400
       59800.000        24.027100      0.055330600
       60000.000        24.026700      0.054949200
       60800.000        24.025000      0.053456400
       61500.000        24.023600      0.052199000
       62300.000        24.022000      0.050814800
       63000.000        24.020700      0.049647800
       64000.000        24.018900      0.048048300
       65000.000        24.017000      0.046523900
       65900.000        24.015500      0.045208500
       66830.000        24.013900      0.043906300
       67400.000        24.013000      0.043135400
       68000.000        24.012100      0.042345300
       69000.000        24.010600      0.041075400
       70000.000        24.009000      0.039861000
       71000.000        24.007600      0.038695500
       72000.000        24.006200      0.037579700
       72800.000        24.005200      0.036721000
       73500.000        24.004300      0.035993200
       74200.000        24.003300      0.035286500
       74960.000        24.002400      0.034542200
       75500.000        24.001700      0.034027400
       76000.000        24.001100      0.033560700
       77110.000        23.999800      0.032558000
       77900.000        23.998900      0.031871100
       78600.000        23.998100      0.031280200
       79300.000        23.997300      0.030705300
       80000.000        23.996600      0.030145900
       80800.000        23.995800      0.029523000
       81500.000        23.995100      0.028993400
       82300.000        23.994300      0.028405100
       83000.000        23.993700      0.027904700
       84000.000        23.992700      0.027212200
       85000.000        23.991700      0.026544700
       86500.000        23.990400      0.025587900
       88000.000        23.989200      0.024681200
       89000.000        23.988300      0.024102900
       90000.000        23.987500      0.023544300
       91500.000        23.986400      0.022740100
       93000.000        23.985300      0.021975800
       94000.000        23.984500      0.021487100
       95000.000        23.983800      0.021014400
       96500.000        23.982800      0.020333400
       98000.000        23.981800      0.019684600
       99000.000        23.981200      0.019268900
       99500.000        23.980900      0.019065900
       100000.00        23.980600      0.018866000
