;  Atomic scattering factors for Cs.
;   
;  Concatenation of data from CXRO <http://www-cxro.lbl.gov>
;  and LLNL <http://www-phys.llnl.gov/V_Div/scattering/asf.html>
;  
;  E (eV) f1 f2
;---------------
       10.000000       -9999.0000      0.042943700
       10.161700       -9999.0000      0.041990000
       10.326100       -9999.0000      0.041057400
       10.493100       -9999.0000      0.040145600
       10.662800       -9999.0000      0.039254000
       10.835300       -9999.0000      0.038382200
       11.010600       -9999.0000      0.041857900
       11.188600       -9999.0000      0.049868800
       11.369600       -9999.0000      0.062906900
       11.553500       -9999.0000      0.068225900
       11.740400       -9999.0000      0.069877500
       11.930300       -9999.0000      0.081003600
       12.123200       -9999.0000       0.10664800
       12.319300       -9999.0000       0.15121200
       12.518600       -9999.0000       0.23047600
       12.721000       -9999.0000       0.36699100
       12.926800       -9999.0000       0.52835500
       13.135900       -9999.0000       0.81815300
       13.348300       -9999.0000        1.0240000
       13.564200       -9999.0000        1.2687200
       13.783600       -9999.0000        1.5515500
       14.006600       -9999.0000        1.8771500
       14.233100       -9999.0000        2.3732400
       14.463300       -9999.0000        2.9215000
       14.697300       -9999.0000        3.6658900
       14.935000       -9999.0000        4.7514800
       15.176500       -9999.0000        6.9688500
       15.422000       -9999.0000        8.9168400
       15.671400       -9999.0000        10.500400
       15.924900       -9999.0000        11.215500
       16.182500       -9999.0000        11.979300
       16.444200       -9999.0000        12.667100
       16.710200       -9999.0000        13.347200
       16.980500       -9999.0000        13.905700
       17.255100       -9999.0000        14.026400
       17.534200       -9999.0000        14.148200
       17.817800       -9999.0000        14.271000
       18.106000       -9999.0000        14.394900
       18.398900       -9999.0000        14.519900
       18.696400       -9999.0000        14.342700
       18.998800       -9999.0000        14.132800
       19.306100       -9999.0000        13.925900
       19.618400       -9999.0000        13.722100
       19.935700       -9999.0000        13.445800
       20.258200       -9999.0000        13.163800
       20.585800       -9999.0000        12.887800
       20.918800       -9999.0000        12.614100
       21.257100       -9999.0000        12.223200
       21.600900       -9999.0000        11.844500
       21.950300       -9999.0000        11.477500
       22.305300       -9999.0000        11.055300
       22.666100       -9999.0000        10.626900
       23.032700       -9999.0000        10.215100
       23.405300       -9999.0000        9.8192200
       23.783800       -9999.0000        9.4477400
       24.168500       -9999.0000        9.1107200
       24.559400       -9999.0000        8.7857100
       24.956600       -9999.0000        8.4723000
       25.360300       -9999.0000        8.0678600
       25.770500       -9999.0000        7.5629000
       26.187300       -9999.0000        7.0895400
       26.610900       -9999.0000        6.7447900
       27.041300       -9999.0000        6.4559000
       27.478600       -9999.0000        6.1794000
       27.923100       -9999.0000        5.9147300
       28.374700       -9999.0000        5.6546500
       28.833700       -9999.0000        5.3988400
       29.300000        12.661700        5.1546000
       29.773900        12.608500        4.9214100
       30.255500        12.548100        4.7081900
       30.744900        12.492600        4.5074400
       31.242100        12.440000        4.3152500
       31.747500        12.396000        4.1312500
       32.260900        12.375700        3.9551000
       32.782700        12.351500        3.6991200
       33.313000        12.258300        3.4445600
       33.851800        12.135300        3.2373000
       34.399300        12.014500        3.0485800
       34.955700        11.889500        2.8708700
       35.521100        11.759400        2.7035100
       36.095600        11.624400        2.5459200
       36.679400        11.484600        2.3975000
       37.272700        11.340100        2.2577400
       37.875500        11.191000        2.1261300
       38.488200        11.036100        2.0021900
       39.110700        10.872300        1.8883600
       39.743200        10.709600        1.7903200
       40.386100        10.547900        1.6973800
       41.039300        10.383400        1.6092600
       41.703100        10.213200        1.5257200
       42.377600        10.039100        1.4565100
       43.063000        9.8679500        1.3926600
       43.759500        9.6952900        1.3316200
       44.467300        9.5186200        1.2732400
       45.186500        9.3337900        1.2174300
       45.917400        9.1441500        1.1779500
       46.660000        8.9566000        1.1414900
       47.414700        8.7651300        1.1079500
       48.181600        8.5712900        1.0784600
       48.960900        8.3710900        1.0497500
       49.752800        8.1602800        1.0314000
       50.557600        7.9524800        1.0203700
       51.375300        7.7414800        1.0094500
       52.206200        7.5251400        1.0007100
       53.050600        7.3021800       0.99208300
       53.908700        7.0699300       0.98352700
       54.780600        6.8266500       0.97732200
       55.666700        6.5718900       0.97192400
       56.567000        6.2997800       0.96655600
       57.482000        6.0070700       0.97565100
       58.411700        5.7095700       0.99222200
       59.356400        5.4005700        1.0089900
       60.316500        5.0742000        1.0259900
       61.292100        4.7266000        1.0432800
       62.283400        4.3521800        1.0608700
       63.290800        3.9403500        1.0836500
       64.314500        3.5022500        1.1211500
       65.354700        3.0317000        1.1599400
       66.411800        2.5169600        1.2000700
       67.485900        1.9455800        1.2416000
       68.577500        1.2976200        1.2845600
       69.686700       0.53361400        1.3431500
       70.813800      -0.35704500        1.4296100
       71.959100       -1.4946800        1.5362600
       73.123000       -3.2456300        1.8957400
       74.305700       -4.9572600        4.0341600
       75.507600       -3.7190000        5.5363300
       76.728900       -4.1378100        5.3292000
       77.969900       -5.3683700        5.6066000
       79.231000       -6.8036800        6.4997500
       80.512500       -8.0742300        7.8122900
       81.814700       -9.2388300        9.3898400
       83.138000       -10.286000        11.258300
       84.482700       -11.216100        13.451500
       85.849100       -11.824300        16.072100
       87.237700       -11.769900        18.735000
       88.648700       -11.673700        21.392600
       90.082500       -11.278900        24.427300
       91.539500       -9.9184300        27.892400
       93.020100       -7.9819600        29.959300
       94.524600       -6.3101200        31.991400
       96.053500       -4.6155000        34.161400
       97.607100       -2.4787300        36.478500
       99.185800       0.54602500        38.173800
       100.79000        3.1491200        39.225800
       102.42000        5.5735500        40.306800
       104.07700        8.1548300        41.417600
       105.76000        11.235300        42.559100
       107.47100        14.523400        42.788600
       109.20900        17.556900        42.842800
       110.97500        20.736900        42.897000
       112.77000        24.299100        42.477700
       114.59400        28.222600        41.812500
       116.44800        31.793900        39.137400
       118.33100        34.294100        36.427100
       120.24500        36.199100        33.880400
       122.19000        37.715500        31.324700
       124.16600        39.053000        28.961900
       126.17500        40.359900        26.251600
       128.21500        40.944800        23.409200
       130.28900        41.176900        20.770200
       132.39700        41.045800        18.324900
       134.53800        40.765800        16.161100
       136.71400        40.265900        14.010100
       138.92500        39.581000        12.145400
       141.17200        38.767700        10.460200
       143.45600        37.855800        8.9998500
       145.77600        36.890100        7.7434100
       148.13400        35.904700        6.6765700
       150.53000        34.897100        5.7569700
       152.96400        33.870900        5.0650000
       155.43900        32.980300        4.5327100
       157.95300        32.158000        4.0593200
       160.50700        31.388300        3.6490900
       163.10300        30.652300        3.2803100
       165.74200        29.913400        2.9488000
       168.42200        29.202700        2.7290600
       171.14600        28.543700        2.5402300
       173.91500        27.882000        2.4118100
       176.72700        27.304500        2.3528400
       179.58600        26.772600        2.2953100
       182.49100        26.227500        2.2481800
       185.44200        25.725600        2.2867700
       188.44200        25.277400        2.3477700
       191.48900        24.879400        2.4212000
       194.58700        24.530600        2.4969200
       197.73400        24.195900        2.5371600
       200.93200        23.855200        2.6135600
       204.18200        23.540100        2.6908200
       207.48500        23.231300        2.7795400
       210.84000        22.935400        2.8836000
       214.25100        22.659700        3.0151800
       217.71600        22.406100        3.1565700
       221.23700        22.175400        3.3073600
       224.81600        21.964600        3.4656300
       228.45200        21.773700        3.6305700
       232.14700        21.602400        3.8016800
       235.90200        21.449000        3.9749400
       239.71700        21.315400        4.1514700
       243.59500        21.197900        4.3298800
       247.53500        21.096000        4.5074600
       251.53800        21.014600        4.6855500
       255.60700        20.945700        4.8610300
       259.74100        20.888400        5.0321300
       263.94200        20.845400        5.2029700
       268.21100        20.816800        5.3734600
       272.54900        20.799800        5.5326100
       276.95700        20.790800        5.6895600
       281.43700        20.794000        5.8470700
       285.98900        20.806600        5.9911200
       290.61500        20.828100        6.1318100
       295.31500        20.854800        6.2675400
       300.09200        20.887500        6.3957500
       304.94500        20.930100        6.5183900
       309.87800        20.974200        6.6335900
       314.89000        21.022100        6.7443400
       319.98300        21.078400        6.8484300
       325.15800        21.133400        6.9435500
       330.41800        21.189300        7.0346200
       335.76200        21.254300        7.1204400
       341.19200        21.316600        7.1961000
       346.71100        21.376500        7.2678100
       352.31900        21.442600        7.3359100
       358.01700        21.505700        7.3931500
       363.80800        21.565300        7.4445800
       369.69200        21.625200        7.4929600
       375.67200        21.683000        7.5364100
       381.74800        21.737600        7.5721300
       387.92200        21.788200        7.6052000
       394.19700        21.839600        7.6371400
       400.57300        21.889000        7.6569200
       407.05200        21.928800        7.6718600
       413.63500        21.964200        7.6869200
       420.32600        21.995800        7.6965600
       427.12400        22.023900        7.7039900
       434.03200        22.046100        7.7072300
       441.05200        22.064500        7.7105300
       448.18600        22.116000        7.7017000
       455.43500        22.125200        7.6318600
       462.80200        22.085000        7.5886800
       470.28700        22.038300        7.5597200
       477.89400        21.986900        7.5307800
       485.62300        21.924300        7.5020400
       493.47800        21.850000        7.4734200
       501.45900        21.763300        7.4448900
       509.57000        21.663900        7.4164300
       517.81200        21.553100        7.3868100
       526.18700        21.428000        7.3528600
       534.69800        21.283900        7.3105400
       543.34600        21.113200        7.2642700
       552.13400        20.917200        7.2183100
       561.06500        20.693700        7.1682300
       570.13900        20.437600        7.1160300
       579.36100        20.142600        7.0614800
       588.73200        19.804800        7.0068200
       598.25400        19.417700        6.9522200
       607.93000        18.973700        6.8979900
       617.76300        18.462600        6.8442400
       627.75500        17.872200        6.7905100
       637.90800        17.181800        6.7316200
       648.22600        16.359800        6.6650800
       658.71100        15.357200        6.5938800
       669.36500        14.109700        6.5234700
       680.19100        12.511300        6.4637000
       691.19300        10.371600        6.4121000
       702.37200        7.2514200        6.3628800
       713.73300        1.7866700        6.3073100
       725.27700       -19.313200        6.2475900
       726.50000       -44.142800        6.2413500
       726.70000       -44.105100        36.626700
       737.00800        1.6924300        35.873400
       748.92800        9.6694900        35.034000
       761.04200        14.284000        34.214300
       773.35100        17.544700        33.413800
       785.85900        20.049600        32.631900
       798.57000        22.060600        31.868500
       811.48600        23.690000        31.122800
       824.61100        25.056300        30.450000
       837.94900        26.236500        29.801000
       851.50200        27.247600        29.165900
       865.27400        28.103700        28.544300
       879.26900        28.811600        27.936000
       893.49100        29.341100        27.340600
       907.94300        29.684900        26.823600
       922.62800        29.888500        26.393700
       937.55100        29.644500        25.970600
       952.71500        29.517000        26.581700
       968.12400        29.790000        27.275500
       983.78300        30.399400        27.987300
       999.69500        31.238400        28.717800
       1015.8600        32.940900        29.467200
       1032.2900        34.549000        28.933400
       1048.9900        35.585400        28.358500
       1065.9600        36.397400        27.795100
       1083.2000        36.966600        27.314300
       1100.7200        37.526100        27.015900
       1118.5200        38.142500        26.720700
       1136.6100        38.750700        26.428800
       1155.0000        39.414600        26.140100
       1173.6800        40.057400        25.731000
       1192.6600        40.610200        25.296000
       1211.9500        41.108000        24.868400
       1231.5500        41.564400        24.448100
       1251.4700        41.985200        24.034800
       1271.7200        42.354500        23.628500
       1292.2900        42.692900        23.268700
       1313.1900        43.038200        22.939900
       1334.4300        43.383700        22.615800
       1356.0100        43.723600        22.296200
       1377.9400        44.057000        21.981200
       1400.2300        44.384700        21.670600
       1422.8800        44.709100        21.364400
       1445.8900        45.028900        21.055000
       1469.2800        45.340700        20.746800
       1493.0400        45.645900        20.443100
       1517.1900        45.949300        20.143900
       1541.7300        46.255600        19.849000
       1566.6700        46.577400        19.558500
       1592.0100        46.933700        19.223800
       1617.7600        47.249700        18.826600
       1643.9200        47.507800        18.438500
       1670.5100        47.743500        18.058500
       1697.5300        47.961300        17.686400
       1724.9900        48.167400        17.321800
       1752.8900        48.359800        16.954400
       1781.2400        48.535900        16.591200
       1810.0500        48.695200        16.232900
       1839.3200        48.840600        15.882600
       1869.0700        48.974400        15.539800
       1899.3000        49.097700        15.204200
       1930.0200        49.211200        14.875900
       1961.2400        49.316200        14.554800
       1992.9600        49.411200        14.241000
       2025.2000        49.504500        13.939600
       2057.9500        49.593000        13.633600
       2091.2400        49.671900        13.333100
       2125.0600        49.742200        13.037900
       2159.4300        49.805200        12.748800
       2194.3600        49.861700        12.465100
       2229.8500        49.911700        12.186900
       2265.9200        49.955800        11.914500
       2302.5700        49.994100        11.647000
       2339.8100        50.026400        11.385000
       2377.6600        50.053800        11.128800
       2416.1100        50.076100        10.877000
       2455.1900        50.093400        10.630600
       2494.9000        50.105600        10.388900
       2535.2600        50.113200        10.152600
       2576.2600        50.116400        9.9209500
       2617.9300        50.115400        9.6941300
       2660.2700        50.109700        9.4715000
       2703.3000        50.099600        9.2539700
       2747.0300        50.085600        9.0411200
       2791.4600        50.067600        8.8325500
       2836.6100        50.045400        8.6282300
       2882.4900        50.019200        8.4283200
       2929.1100        49.988900        8.2326100
       2976.4800        49.954600        8.0410700
       3024.6300        49.916200        7.8535500
       3073.5500        49.873700        7.6701100
       3123.2600        49.827000        7.4905000
       3173.7800        49.776100        7.3147600
       3225.1100        49.720800        7.1428200
       3277.2700        49.661000        6.9745100
       3330.2800        49.596400        6.8097900
       3384.1500        49.526900        6.6486800
       3438.8800        49.452200        6.4910100
       3494.5000        49.372000        6.3367600
       3551.0200        49.286000        6.1858600
       3608.4600        49.193700        6.0382400
       3666.8200        49.094600        5.8937600
       3726.1300        48.988200        5.7525500
       3786.4000        48.873800        5.6142700
       3847.6400        48.750400        5.4790400
       3909.8700        48.617100        5.3467200
       3973.1100        48.472600        5.2172600
       4037.3800        48.315400        5.0906300
       4102.6800        48.143600        4.9668000
       4169.0300        47.955000        4.8456900
       4236.4600        47.746500        4.7271800
       4304.9800        47.514200        4.6112700
       4374.6200        47.253100        4.4979000
       4445.3700        46.955900        4.3868900
       4517.2700        46.612700        4.2784300
       4590.3300        46.208400        4.1723700
       4664.5800        45.719100        4.0684600
       4740.0300        45.102800        3.9669000
       4816.6900        44.275400        3.8675400
       4894.6000        43.019600        3.7703100
       4973.7700        40.321600        3.6752500
       5011.8000        26.185800        3.6309600
       5012.0000        26.187700        11.129400
       5054.2100        40.575800        10.959200
       5135.9600        42.933000        10.640600
       5219.0300        43.701500        10.331500
       5303.4400        43.545000        10.031300
       5359.3000        36.604400        9.8400000
       5359.5000        36.608300        13.572000
       5389.2200        43.394300        13.453500
       5476.3900        45.461200        13.115400
       5564.9700        46.391900        12.786000
       5654.9800        46.830100        12.464700
       5714.2000        44.097600        12.260500
       5714.4000        44.101500        13.909900
       5746.4400        47.149000        13.799200
       5839.3900        48.438500        13.486200
       5933.8300        49.236100        13.177700
       6029.8100        49.866700        12.873900
       6127.3300        50.398000        12.574700
       6226.4400        50.859000        12.280200
       6327.1500        51.266000        11.990700
       6429.4800        51.629400        11.706100
       6533.4800        51.956400        11.426200
       6639.1500        52.252200        11.151200
       6746.5400        52.520900        10.881300
       6855.6500        52.766000        10.616400
       6966.5400        52.989900        10.356500
       7079.2200        53.195000        10.101600
       7193.7200        53.382900        9.8515700
       7310.0700        53.555400        9.6065700
       7428.3100        53.713800        9.3665800
       7548.4500        53.859300        9.1313000
       7670.5400        53.992800        8.9010500
       7794.6100        54.115500        8.6756900
       7920.6800        54.228100        8.4549500
       8048.7900        54.331300        8.2389000
       8178.9800        54.425700        8.0276700
       8311.2600        54.512200        7.8211400
       8445.6900        54.591200        7.6191100
       8582.2900        54.663200        7.4214400
       8721.1100        54.728500        7.2284900
       8862.1600        54.787800        7.0398700
       9005.5000        54.841500        6.8556700
       9151.1600        54.889900        6.6754300
       9299.1700        54.933000        6.4997200
       9449.5800        54.971700        6.3280800
       9602.4200        55.005900        6.1604900
       9757.7300        55.036100        5.9969800
       9915.5500        55.062500        5.8373200
       10075.900        55.085300        5.6815100
       10238.900        55.104600        5.5295000
       10404.500        55.120800        5.3812200
       10572.800        55.134000        5.2365800
       10743.800        55.144500        5.0955300
       10917.600        55.152400        4.9579900
       11094.200        55.157800        4.8239000
       11273.600        55.160900        4.6931700
       11455.900        55.161900        4.5657500
       11641.200        55.160800        4.4415700
       11829.500        55.157900        4.3205500
       12020.800        55.153300        4.2026300
       12215.300        55.146900        4.0877400
       12412.800        55.139100        3.9758200
       12613.600        55.129800        3.8668000
       12817.600        55.119200        3.7606100
       13025.000        55.107300        3.6572000
       13235.600        55.094200        3.5564900
       13449.700        55.080100        3.4584300
       13667.200        55.064900        3.3629600
       13888.300        55.048700        3.2700100
       14112.900        55.031700        3.1795300
       14341.200        55.013900        3.0914500
       14573.100        54.995200        3.0057200
       14808.900        54.975900        2.9222900
       15048.400        54.955900        2.8411000
       15291.800        54.935200        2.7620900
       15539.100        54.914000        2.6852100
       15790.400        54.892200        2.6104000
       16045.800        54.869900        2.5376300
       16305.400        54.847200        2.4668300
       16569.100        54.823900        2.3979500
       16837.100        54.800300        2.3309500
       17109.400        54.776200        2.2657900
       17386.100        54.751800        2.2024100
       17667.400        54.727000        2.1407600
       17953.100        54.701800        2.0808100
       18243.500        54.676300        2.0225100
       18538.600        54.650500        1.9658100
       18838.400        54.624400        1.9106800
       19143.100        54.597900        1.8570800
       19452.700        54.571100        1.8049600
       19767.400        54.544000        1.7542900
       20087.100        54.516600        1.7050200
       20412.000        54.488800        1.6571300
       20742.100        54.460700        1.6105700
       21077.600        54.432200        1.5653000
       21418.500        54.403300        1.5213100
       21765.000        54.374000        1.4785400
       22117.000        54.344300        1.4369700
       22474.700        54.314100        1.3965600
       22838.200        54.283400        1.3572900
       23207.600        54.252000        1.3191200
       23583.000        54.220100        1.2820200
       23964.400        54.187500        1.2459600
       24352.000        54.154100        1.2109200
       24745.900        54.119800        1.1768700
       25146.200        54.084600        1.1437800
       25552.900        54.048300        1.1116200
       25966.200        54.010800        1.0803800
       26386.100        53.971900        1.0500100
       26812.900        53.931400        1.0205000
       27246.600        53.889200       0.99182900
       27687.300        53.844900       0.96396800
       28135.100        53.798300       0.93689700
       28590.200        53.748900       0.91059300
       29052.600        53.696200       0.88503500
       29522.500        53.639700       0.86020100
       30000.000        53.578700       0.83607300
       30200.000        53.501700       0.80393500
       30400.000        53.473900       0.79423900
       30600.000        53.445200       0.78489600
       30800.000        53.415500       0.77555400
       31000.000        53.384600       0.76654800
       31200.000        53.352500       0.75754200
       31350.000        53.327600       0.75099800
       31500.000        53.301800       0.74445400
       31700.000        53.266200       0.73599700
       31900.000        53.228800       0.72754100
       32100.000        53.189500       0.71937800
       32300.000        53.148200       0.71121600
       32450.000        53.115600       0.70527900
       32600.000        53.081600       0.69934200
       32800.000        53.033800       0.69166200
       33000.000        52.982700       0.68398100
       33100.000        52.955900       0.68025100
       33200.000        52.928000       0.67652000
       33300.000        52.899000       0.67279000
       33400.000        52.868900       0.66906000
       33500.000        52.837600       0.66545400
       33600.000        52.804900       0.66184800
       33700.000        52.770700       0.65824300
       33800.000        52.734800       0.65463700
       33880.000        52.704900       0.65183600
       33950.000        52.677700       0.64938500
       34030.000        52.645400       0.64658300
       34100.000        52.615900       0.64413200
       34200.000        52.571800       0.64073000
       34300.000        52.525000       0.63732900
       34400.000        52.475100       0.63392800
       34500.000        52.421700       0.63052600
       34600.000        52.364400       0.62723400
       34650.000        52.334100       0.62558900
       34700.000        52.302600       0.62394300
       34750.000        52.269700       0.62229700
       34800.000        52.235500       0.62065200
       34850.000        52.199600       0.61900600
       34900.000        52.162000       0.61736000
       34940.000        52.130600       0.61608000
       34980.000        52.098000       0.61480100
       35050.000        52.037300       0.61256100
       35090.000        52.000500       0.61128100
       35130.000        51.961900       0.61000200
       35170.000        51.921400       0.60872200
       35200.000        51.889600       0.60776200
       35250.000        51.833700       0.60620700
       35300.000        51.773700       0.60465100
       35350.000        51.708900       0.60309600
       35400.000        51.638500       0.60154100
       35430.000        51.593200       0.60060700
       35450.000        51.561600       0.59998500
       35480.000        51.511800       0.59905200
       35500.000        51.476900       0.59843000
       35520.000        51.440500       0.59780800
       35550.000        51.382700       0.59687400
       35580.000        51.320600       0.59594100
       35600.000        51.276500       0.59531900
       35630.000        51.205800       0.59441500
       35650.000        51.155200       0.59381200
       35670.000        51.101300       0.59320900
       35685.000        51.058600       0.59275600
       35700.000        51.013700       0.59230400
       35715.000        50.966200       0.59185200
       35730.000        50.916000       0.59140000
       35750.000        50.844200       0.59079700
       35760.000        50.806000       0.59049500
       35770.000        50.766000       0.59019400
       35785.000        50.702300       0.58974200
       35800.000        50.633500       0.58928900
       35810.000        50.584500       0.58898800
       35820.000        50.532600       0.58868700
       35830.000        50.477500       0.58838500
       35840.000        50.418600       0.58808400
       35850.000        50.355500       0.58778200
       35860.000        50.287600       0.58748100
       35868.000        50.229300       0.58723900
       35875.000        50.174900       0.58702800
       35882.000        50.116900       0.58681700
       35890.000        50.045700       0.58657600
       35895.000        49.998100       0.58642500
       35900.000        49.947900       0.58627500
       35905.000        49.894600       0.58612400
       35910.000        49.838000       0.58597300
       35918.000        49.739200       0.58573200
       35922.000        49.685400       0.58561200
       35925.000        49.642800       0.58552100
       35929.000        49.582700       0.58540000
       35933.000        49.518300       0.58528000
       35937.000        49.449000       0.58515900
       35940.000        49.393200       0.58506900
       35943.000        49.333700       0.58497800
       35945.000        49.291700       0.58491800
       35948.000        49.225000       0.58482800
       35950.000        49.177500       0.58476700
       35953.000        49.101300       0.58467700
       35955.000        49.046700       0.58461700
       35958.000        48.958000       0.58452600
       35960.000        48.893700       0.58446600
       35962.000        48.824300       0.58440600
       35964.000        48.749200       0.58434500
       35965.500        48.688400       0.58430000
       35967.000        48.623200       0.58425500
       35968.500        48.553200       0.58421000
       35970.000        48.476900       0.58416400
       35971.500        48.393600       0.58411900
       35973.000        48.301700       0.58407400
       35974.000        48.235000       0.58404400
       35975.000        48.162500       0.58401400
       35976.000        48.083900       0.58398400
       35977.000        47.997300       0.58395300
       35977.800        47.921600       0.58392900
       35978.500        47.849300       0.58390800
       35979.300        47.759000       0.58388400
       35980.000        47.670700       0.58386300
       35980.800        47.558500       0.58383900
       35981.500        47.446500       0.58381800
       35982.300        47.297200       0.58379400
       35983.000        47.140700       0.58377300
       35983.500        47.009000       0.58375700
       35984.000        46.852100       0.58374200
       35984.500        46.658700       0.58372700
       35985.000        46.409200       0.58371200
       35985.300        46.216400       0.58370300
       35985.700        45.870300       0.58369100
       35986.400        44.714900       0.58367000
       35986.400        44.700100       0.58367000
       35986.500        44.924900        1.4435600
       35986.700        45.344600        3.1633300
       35987.100        46.119200        6.6028700
       35987.700        47.028600       0.58363200
       35987.700        46.997500       0.58363000
       35987.800        47.371500       0.58362700
       35988.400        47.032900        4.1073100
       35988.400        47.005800       0.58361000
       35988.800        47.289600       0.58360000
       35989.100        47.466200       0.65515900
       35989.100        47.430600        1.9473500
       35989.900        46.358900        1.5166400
       35990.400        46.206300        2.7635700
       35990.900        46.428100        3.1249200
       35991.400        46.862900        3.1640500
       35992.000        47.036400        3.2118700
       35992.400        47.124800        3.2347700
       35992.800        47.203600        3.2576700
       35993.100        47.256200        3.2751900
       35993.500        47.322500        3.2985400
       35993.900        47.385300        3.3220800
       35994.300        47.444700        3.3399400
       35994.700        47.501400        3.3557900
       35995.000        47.541200        3.3680400
       35995.400        47.590600        3.3840200
       35995.800        47.641900        3.4002400
       35996.100        47.677200        3.4109400
       35996.500        47.725500        3.4215300
       35997.200        47.803400        3.4401700
       35998.000        47.888500        3.4615600
       35998.500        47.939300        3.4696200
       35999.000        47.987700        3.4777000
       35999.500        48.033300        3.4858000
       36000.000        48.079700        3.4939200
       36000.700        48.140900        3.4999400
       36001.500        48.206400        3.5068600
       36002.300        48.269400        3.5111600
       36003.000        48.322000        3.5149300
       36004.000        48.392100        3.5171000
       36005.000        48.458300        3.5177500
       36006.000        48.519900        3.5158900
       36007.000        48.577400        3.5140400
       36008.500        48.657200        3.5081000
       36010.000        48.729800        3.5021600
       36011.500        48.795900        3.4949300
       36013.000        48.856400        3.4877100
       36014.000        48.893900        3.4830700
       36015.000        48.929700        3.4784300
       36016.500        48.979400        3.4719800
       36018.000        49.025400        3.4655300
       36020.000        49.081900        3.4582100
       36023.000        49.158800        3.4508400
       36025.000        49.204700        3.4472600
       36028.000        49.269500        3.4438800
       36029.000        49.289700        3.4438100
       36029.500        49.299800        3.4437800
       36030.000        49.309800        3.4437400
       36034.000        49.386000        3.4470300
       36038.000        49.457300        3.4503200
       36042.000        49.525400        3.4536000
       36045.000        49.574200        3.4560700
       36052.000        49.682700        3.4627400
       36056.000        49.741400        3.4644000
       36060.000        49.796900        3.4660700
       36063.000        49.836900        3.4655400
       36067.000        49.887500        3.4648300
       36071.000        49.935200        3.4629900
       36075.000        49.979900        3.4611400
       36079.000        50.022000        3.4594600
       36083.000        50.061800        3.4577700
       36090.000        50.126400        3.4548300
       36100.000        50.211400        3.4539200
       36110.000        50.289000        3.4530100
       36120.000        50.362700        3.4535300
       36130.000        50.432000        3.4540600
       36138.000        50.484000        3.4531600
       36145.000        50.527700        3.4523700
       36153.000        50.576200        3.4514800
       36160.000        50.616100        3.4506900
       36168.000        50.659100        3.4490700
       36175.000        50.694800        3.4476500
       36190.000        50.767400        3.4446100
       36210.000        50.855900        3.4418900
       36230.000        50.937400        3.4391700
       36245.000        50.994300        3.4373200
       36260.000        51.048200        3.4354800
       36280.000        51.115700        3.4330200
       36300.000        51.179000        3.4305600
       36310.000        51.209100        3.4293000
       36320.000        51.238400        3.4280300
       36350.000        51.321600        3.4242400
       36370.000        51.373400        3.4217100
       36400.000        51.446500        3.4179200
       36420.000        51.492400        3.4153300
       36450.000        51.557600        3.4114400
       36480.000        51.619100        3.4075600
       36500.000        51.658400        3.4049700
       36530.000        51.714500        3.4005800
       36570.000        51.784100        3.3947300
       36610.000        51.848800        3.3888700
       36650.000        51.908700        3.3830200
       36680.000        51.951100        3.3786300
       36720.000        52.005600        3.3727800
       36760.000        52.057500        3.3669200
       36800.000        52.106900        3.3610700
       36820.000        52.130800        3.3586900
       36850.000        52.165700        3.3551200
       36900.000        52.221600        3.3491700
       36950.000        52.275000        3.3432500
       37000.000        52.326400        3.3373400
       37030.000        52.356300        3.3330700
       37070.000        52.394500        3.3273700
       37110.000        52.431200        3.3216800
       37150.000        52.466600        3.3159800
       37220.000        52.525800        3.3060100
       37300.000        52.589900        3.2946200
       37350.000        52.628100        3.2870200
       37400.000        52.664600        3.2794200
       37450.000        52.699800        3.2718300
       37500.000        52.733900        3.2642300
       37570.000        52.779600        3.2534300
       37650.000        52.828900        3.2410800
       37720.000        52.869900        3.2302800
       37800.000        52.914200        3.2179300
       37850.000        52.940700        3.2109000
       37900.000        52.966600        3.2038800
       38000.000        53.016300        3.1898200
       38070.000        53.049500        3.1807500
       38150.000        53.086400        3.1703700
       38220.000        53.117600        3.1613000
       38300.000        53.151900        3.1509300
       38400.000        53.193200        3.1391000
       38500.000        53.233500        3.1272700
       38650.000        53.291300        3.1093800
       38800.000        53.346000        3.0915000
       38900.000        53.381100        3.0795700
       39000.000        53.415400        3.0676500
       39150.000        53.464600        3.0492400
       39300.000        53.511100        3.0308200
       39400.000        53.540900        3.0185500
       39500.000        53.569900        3.0062700
       39650.000        53.611800        2.9877600
       39800.000        53.651600        2.9692400
       39900.000        53.677100        2.9569000
       40000.000        53.702000        2.9445600
       40100.000        53.726200        2.9324800
       40200.000        53.749500        2.9204100
       40300.000        53.772200        2.9083300
       40400.000        53.794300        2.8962600
       40500.000        53.815700        2.8841800
       40600.000        53.836600        2.8721000
       40700.000        53.856800        2.8600300
       40800.000        53.876600        2.8479500
       40950.000        53.905300        2.8304800
       41100.000        53.932900        2.8130200
       41300.000        53.968100        2.7902600
       41500.000        54.001500        2.7675000
       41700.000        54.033300        2.7458200
       41900.000        54.063900        2.7241500
       42100.000        54.093300        2.7030100
       42300.000        54.121500        2.6818700
       42450.000        54.141900        2.6665500
       42600.000        54.161700        2.6512400
       42800.000        54.187200        2.6308100
       43000.000        54.211500        2.6103900
       43200.000        54.235000        2.5911700
       43400.000        54.257700        2.5719500
       43600.000        54.279700        2.5527400
       43800.000        54.300900        2.5335200
       43950.000        54.316300        2.5198200
       44100.000        54.331200        2.5061300
       44300.000        54.350700        2.4878600
       44500.000        54.369700        2.4696000
       44700.000        54.388000        2.4520400
       44900.000        54.405900        2.4344800
       45100.000        54.423400        2.4169200
       45300.000        54.440200        2.3993600
       45450.000        54.452400        2.3866000
       45600.000        54.464300        2.3738300
       45800.000        54.479800        2.3568200
       46000.000        54.494700        2.3398000
       46150.000        54.505700        2.3274700
       46300.000        54.516300        2.3151500
       46500.000        54.530200        2.2987100
       46800.000        54.550200        2.2747400
       47000.000        54.563100        2.2587600
       47300.000        54.581800        2.2357700
       47500.000        54.593900        2.2204500
       47800.000        54.611400        2.1974600
       48000.000        54.622700        2.1821400
       48300.000        54.639300        2.1599400
       48500.000        54.649800        2.1451300
       48800.000        54.664900        2.1229300
       49000.000        54.674700        2.1081300
       49300.000        54.688800        2.0868200
       49500.000        54.697900        2.0726100
       49800.000        54.711100        2.0518700
       50000.000        54.719600        2.0380400
       50300.000        54.732000        2.0178900
       50500.000        54.740000        2.0044500
       50800.000        54.751400        1.9843000
       51000.000        54.758800        1.9708600
       51300.000        54.769500        1.9517400
       51500.000        54.776400        1.9389900
       51800.000        54.786400        1.9198700
       52000.000        54.792900        1.9071200
       52300.000        54.802300        1.8889700
       52500.000        54.808300        1.8768700
       53000.000        54.823000        1.8466100
       53500.000        54.836700        1.8174200
       54000.000        54.849400        1.7882300
       54500.000        54.861300        1.7604800
       55000.000        54.872400        1.7327200
       55500.000        54.882900        1.7060200
       56000.000        54.892500        1.6793100
       56400.000        54.899700        1.6588700
       56800.000        54.906500        1.6384300
       57200.000        54.912900        1.6187300
       57530.000        54.917900        1.6024800
       57800.000        54.921800        1.5895500
       58000.000        54.924600        1.5799800
       58500.000        54.931200        1.5567300
       59000.000        54.937400        1.5342900
       59540.000        54.943700        1.5100500
       59800.000        54.946600        1.4987300
       60000.000        54.948700        1.4901100
       60800.000        54.956700        1.4565600
       61500.000        54.963000        1.4281700
       62300.000        54.969700        1.3967300
       63000.000        54.975000        1.3700300
       64000.000        54.981600        1.3332500
       65000.000        54.987600        1.2980200
       65900.000        54.992200        1.2670900
       66830.000        54.996100        1.2363300
       67400.000        54.998300        1.2180600
       68000.000        55.000300        1.1992700
       69000.000        55.003200        1.1686800
       70000.000        55.005300        1.1392900
       71000.000        55.006900        1.1109400
       72000.000        55.008000        1.0836900
       73500.000        55.008800        1.0447200
       74960.000        55.008800        1.0088500
       75500.000        55.008600       0.99606600
       76000.000        55.008400       0.98445500
       77110.000        55.007700       0.95942000
       78600.000        55.006300       0.92734900
       79300.000        55.005500       0.91285600
       80000.000        55.004700       0.89871500
       81500.000        55.002400       0.86924800
       83000.000        55.000100       0.84125800
       84000.000        54.998200       0.82337000
       85000.000        54.996300       0.80606800
       86500.000        54.993000       0.78092600
       88000.000        54.989800       0.75698000
       89000.000        54.987300       0.74164300
       90000.000        54.984900       0.72678300
       91500.000        54.981100       0.70530500
       93000.000        54.977200       0.68479600
       94000.000        54.974500       0.67163200
       95000.000        54.971900       0.65885700
       96500.000        54.967800       0.64034900
       98000.000        54.963700       0.62263400
       99000.000        54.961000       0.61124300
       99500.000        54.959600       0.60566800
       100000.00        54.958200       0.60017100
