;  Atomic scattering factors for Fr.
;   
;  Concatenation of data from CXRO <http://www-cxro.lbl.gov>
;  and LLNL <http://www-phys.llnl.gov/V_Div/scattering/asf.html>
;  
;  E (eV) f1 f2
;---------------
       10.000000       -9999.0000      0.050442100
       10.161700       -9999.0000      0.060587700
       10.326100       -9999.0000      0.072773800
       10.493100       -9999.0000      0.089384700
       10.662800       -9999.0000       0.11712300
       10.835300       -9999.0000       0.15346800
       11.010600       -9999.0000       0.20109100
       11.188600       -9999.0000       0.26349300
       11.369600       -9999.0000       0.40321500
       11.553500       -9999.0000       0.63759300
       11.740400       -9999.0000        1.0082000
       11.930300       -9999.0000        1.5942500
       12.123200       -9999.0000        2.4940200
       12.319300       -9999.0000        3.3679700
       12.518600       -9999.0000        4.5481700
       12.721000       -9999.0000        6.1419300
       12.926800       -9999.0000        6.9204800
       13.135900       -9999.0000        7.2465400
       13.348300       -9999.0000        7.5879600
       13.564200       -9999.0000        7.8827100
       13.783600       -9999.0000        8.1732900
       14.006600       -9999.0000        8.4745800
       14.233100       -9999.0000        8.7645800
       14.463300       -9999.0000        8.9293500
       14.697300       -9999.0000        9.0972200
       14.935000       -9999.0000        9.2682400
       15.176500       -9999.0000        9.4424900
       15.422000       -9999.0000        9.6200100
       15.671400       -9999.0000        9.7418900
       15.924900       -9999.0000        9.8326800
       16.182500       -9999.0000        9.9243100
       16.444200       -9999.0000        10.016800
       16.710200       -9999.0000        10.110100
       16.980500       -9999.0000        10.204300
       17.255100       -9999.0000        10.301200
       17.534200       -9999.0000        10.430300
       17.817800       -9999.0000        10.561000
       18.106000       -9999.0000        10.693300
       18.398900       -9999.0000        10.827200
       18.696400       -9999.0000        10.926800
       18.998800       -9999.0000        10.994100
       19.306100       -9999.0000        11.062000
       19.618400       -9999.0000        11.130200
       19.935700       -9999.0000        11.198800
       20.258200       -9999.0000        11.245800
       20.585800       -9999.0000        11.266600
       20.918800       -9999.0000        11.287500
       21.257100       -9999.0000        11.308500
       21.600900       -9999.0000        11.329400
       21.950300       -9999.0000        11.350400
       22.305300       -9999.0000        11.270900
       22.666100       -9999.0000        11.141000
       23.032700       -9999.0000        11.012700
       23.405300       -9999.0000        10.885800
       23.783800       -9999.0000        10.760300
       24.168500       -9999.0000        10.636300
       24.559400       -9999.0000        10.390700
       24.956600       -9999.0000        10.136400
       25.360300       -9999.0000        9.8883900
       25.770500       -9999.0000        9.6464200
       26.187300       -9999.0000        9.4103700
       26.610900       -9999.0000        9.1801000
       27.041300       -9999.0000        8.9554500
       27.478600       -9999.0000        8.7363100
       27.923100       -9999.0000        8.3696100
       28.374700       -9999.0000        8.0178600
       28.833700       -9999.0000        7.6808900
       29.300000        8.2015100        7.3580800
       29.773900        8.2344100        7.0488400
       30.255500        8.2472400        6.7525900
       30.744900        8.2432600        6.4688000
       31.242100        8.2252100        6.1969300
       31.747500        8.1956900        5.9364900
       32.260900        8.1575300        5.6869900
       32.782700        8.1185200        5.4479800
       33.313000        8.0937900        5.2157400
       33.851800        8.0451300        4.9241100
       34.399300        7.9525400        4.6487700
       34.955700        7.8351000        4.3888400
       35.521100        7.6990700        4.1434400
       36.095600        7.5476600        3.9117600
       36.679400        7.3828900        3.6930300
       37.272700        7.2061600        3.4865400
       37.875500        7.0184900        3.2915900
       38.488200        6.8206700        3.1075400
       39.110700        6.6135100        2.9337800
       39.743200        6.3986100        2.7691800
       40.386100        6.1724400        2.6080100
       41.039300        5.9333600        2.4562200
       41.703100        5.6825100        2.3132700
       42.377600        5.4201400        2.1786300
       43.063000        5.1459100        2.0518400
       43.759500        4.8591700        1.9324200
       44.467300        4.5589900        1.8199500
       45.186500        4.2439900        1.7140300
       45.917400        3.9117900        1.6142700
       46.660000        3.5569700        1.5242000
       47.414700        3.1897500        1.4507400
       48.181600        2.8058400        1.3808300
       48.960900        2.3943600        1.3209800
       49.752800        1.9687800        1.2759600
       50.557600        1.5178300        1.2353700
       51.375300        1.0462400        1.2112500
       52.206200       0.54851100        1.1875900
       53.050600     0.0067094600        1.1750900
       53.908700      -0.56141400        1.1794900
       54.780600       -1.1737200        1.1861900
       55.666700       -1.8345900        1.2074400
       56.567000       -2.5619600        1.2290600
       57.482000       -3.3780300        1.2816100
       58.411700       -4.2801900        1.3518000
       59.356400       -5.3499600        1.4464800
       60.316500       -6.5816900        1.6750700
       61.292100       -7.9518000        2.2092700
       62.283400       -9.3035300        2.8288500
       63.290800       -10.747500        3.6222000
       64.314500       -12.290900        4.6380700
       65.354700       -13.929400        5.9388000
       66.411800       -15.640100        7.6043300
       67.485900       -17.439200        9.7370100
       68.577500       -19.393500        13.020900
       69.686700       -18.922000        16.954000
       70.813800       -18.411300        20.156700
       71.959100       -17.480200        23.140200
       73.123000       -15.695100        26.054300
       74.305700       -14.015900        27.757300
       75.507600       -12.471900        29.571600
       76.728900       -10.484100        31.263200
       77.969900       -8.7404300        32.303000
       79.231000       -7.2140600        33.377500
       80.512500       -5.6514200        34.487600
       81.814700       -3.9384800        35.411600
       83.138000       -2.3509900        36.208800
       84.482700      -0.78569100        37.023900
       85.849100       0.91663200        37.857400
       87.237700        2.6393600        38.368800
       88.648700        4.2956400        38.884500
       90.082500        5.9676700        39.407100
       91.539500        7.7777000        39.855200
       93.020100        9.5540400        40.186600
       94.524600        11.393900        40.520700
       96.053500        13.466800        40.857500
       97.607100        15.773400        40.707900
       99.185800        17.798400        40.294700
       100.79000        19.766500        39.885600
       102.42000        21.948700        39.480700
       104.07700        24.405500        38.322700
       105.76000        26.137500        36.691700
       107.47100        27.466000        35.130000
       109.20900        28.543400        33.634900
       110.97500        29.433500        32.203400
       112.77000        30.173900        30.832800
       114.59400        30.789000        29.520500
       116.44800        31.295800        28.264100
       118.33100        31.703600        27.061200
       120.24500        32.001500        25.909500
       122.19000        32.205200        24.892400
       124.16600        32.428200        23.967900
       126.17500        32.643700        23.077800
       128.21500        32.842800        22.220700
       130.28900        33.026200        21.395400
       132.39700        33.198400        20.600800
       134.53800        33.367600        19.835700
       136.71400        33.552000        19.099100
       138.92500        33.820600        18.389700
       141.17200        34.058300        17.425300
       143.45600        34.139200        16.474400
       145.77600        34.112900        15.575300
       148.13400        34.029500        14.725400
       150.53000        33.903400        13.921700
       152.96400        33.745000        13.162000
       155.43900        33.565200        12.443700
       157.95300        33.386800        11.747400
       160.50700        33.157700        11.051800
       163.10300        32.891700        10.397400
       165.74200        32.600600        9.7817900
       168.42200        32.290200        9.2025800
       171.14600        31.964700        8.6576800
       173.91500        31.627200        8.1450400
       176.72700        31.283400        7.6627600
       179.58600        30.932300        7.1966000
       182.49100        30.561300        6.7517400
       185.44200        30.176100        6.3344000
       188.44200        29.779700        5.9428300
       191.48900        29.373900        5.5754800
       194.58700        28.970800        5.2230300
       197.73400        28.536400        4.8713200
       200.93200        28.064500        4.5432700
       204.18200        27.533400        4.2373300
       207.48500        26.966400        4.0825600
       210.84000        26.479500        3.9912900
       214.25100        26.072700        3.8884800
       217.71600        25.660000        3.7585000
       221.23700        25.235400        3.6328700
       224.81600        24.802400        3.5093000
       228.45200        24.349100        3.3883300
       232.14700        23.861700        3.2858400
       235.90200        23.342000        3.2083200
       239.71700        22.810900        3.2131600
       243.59500        22.318500        3.2473100
       247.53500        21.837100        3.2818300
       251.53800        21.343300        3.3122200
       255.60700        20.791300        3.3424400
       259.74100        20.251600        3.5224700
       263.94200        19.753100        3.6760000
       268.21100        19.261000        3.8362200
       272.54900        18.751100        4.0046600
       276.95700        18.239200        4.2167500
       281.43700        17.728000        4.4400900
       285.98900        17.204200        4.6752500
       290.61500        16.656900        4.9374900
       295.31500        16.098100        5.2300300
       300.09200        15.510500        5.5399100
       304.94500        14.785000        5.9342500
       309.87800        14.131300        6.5121600
       314.89000        13.595800        7.1463800
       319.98300        13.085200        7.7468600
       325.15800        12.559200        8.3910600
       330.41800        12.013500        9.1004700
       335.76200        11.507400        9.9302600
       341.19200        11.062700        10.835700
       346.71100        10.732500        11.802900
       352.31900        10.446600        12.783400
       358.01700        10.239800        13.845300
       363.80800        10.171300        14.904300
       369.69200        10.118300        15.932400
       375.67200        10.123000        17.031400
       381.74800        10.314400        18.206200
       387.92200        10.691000        19.210900
       394.19700        10.988200        20.072000
       400.57300        11.268200        20.971700
       407.05200        11.603200        21.911800
       413.63500        12.119300        22.815200
       420.32600        12.561900        23.526500
       427.12400        12.954000        24.259900
       434.03200        13.342400        25.016100
       441.05200        13.749100        25.796000
       448.18600        14.193600        26.600100
       455.43500        14.729100        27.404000
       462.80200        15.264000        28.141900
       470.28700        15.814200        28.899600
       477.89400        16.412800        29.677800
       485.62300        17.110700        30.476900
       493.47800        17.983900        31.124500
       501.45900        18.768400        31.594800
       509.57000        19.451600        32.072200
       517.81200        20.117900        32.556800
       526.18700        20.779500        33.048700
       534.69800        21.446700        33.548100
       543.34600        22.151400        34.055000
       552.13400        22.874900        34.506900
       561.06500        23.561800        34.929000
       570.13900        24.222000        35.356200
       579.36100        24.799300        35.788600
       588.73200        25.295400        36.399700
       598.25400        25.997500        37.238300
       607.93000        26.908600        38.096200
       617.76300        28.048100        38.973900
       627.75500        29.702300        39.789400
       637.90800        31.248500        39.828600
       648.22600        32.611200        39.867800
       658.71100        34.132200        39.801100
       669.36500        35.429800        39.379400
       680.19100        36.452700        38.962200
       691.19300        37.323500        38.549500
       702.37200        38.130700        38.256300
       713.73300        38.918500        37.970900
       725.27700        39.690800        37.687600
       737.00800        40.463900        37.406500
       748.92800        41.213300        37.040500
       761.04200        41.883100        36.643600
       773.35100        42.466400        36.250900
       785.85900        42.983700        35.880400
       798.57000        43.459200        35.536000
       811.48600        43.887400        35.199500
       824.61100        44.247300        34.866300
       837.94900        44.464900        34.536200
       851.50200        44.561800        34.428100
       865.27400        44.639800        34.565600
       879.26900        44.966300        34.926100
       893.49100        45.493200        35.290000
       907.94300        46.197700        35.657900
       922.62800        47.225900        36.029600
       937.55100        48.315600        35.873900
       952.71500        49.319900        35.584800
       968.12400        50.144900        35.181900
       983.78300        50.867400        34.783700
       999.69500        51.530800        34.384900
       1015.8600        52.157600        33.985300
       1032.2900        52.704300        33.544100
       1048.9900        53.179800        33.156400
       1065.9600        53.657800        32.825300
       1083.2000        54.137900        32.496700
       1100.7200        54.611000        32.171100
       1118.5200        55.076300        31.848600
       1136.6100        55.534300        31.528500
       1155.0000        55.986300        31.211200
       1173.6800        56.434500        30.896800
       1192.6600        56.881700        30.584900
       1211.9500        57.333500        30.275900
       1231.5500        57.806600        29.969500
       1251.4700        58.299000        29.618300
       1271.7200        58.793900        29.220100
       1292.2900        59.228300        28.764900
       1313.1900        59.614000        28.315600
       1334.4300        59.968600        27.872900
       1356.0100        60.298800        27.436600
       1377.9400        60.608400        27.006500
       1400.2300        60.900400        26.582600
       1422.8800        61.176700        26.164600
       1445.8900        61.440200        25.753000
       1469.2800        61.695100        25.343900
       1493.0400        61.942300        24.935600
       1517.1900        62.170600        24.513600
       1541.7300        62.376900        24.095600
       1566.6700        62.564200        23.684300
       1592.0100        62.736000        23.279000
       1617.7600        62.893300        22.880100
       1643.9200        63.037300        22.487300
       1670.5100        63.168700        22.100800
       1697.5300        63.288600        21.720600
       1724.9900        63.403500        21.346000
       1752.8900        63.505900        20.965400
       1781.2400        63.591000        20.587100
       1810.0500        63.659300        20.212000
       1839.3200        63.710800        19.843000
       1869.0700        63.747600        19.480500
       1899.3000        63.770500        19.124200
       1930.0200        63.779200        18.773600
       1961.2400        63.773500        18.429300
       1992.9600        63.751100        18.090900
       2025.2000        63.724900        17.766400
       2057.9500        63.685700        17.431400
       2091.2400        63.624700        17.100300
       2125.0600        63.544800        16.772800
       2159.4300        63.445100        16.450000
       2194.3600        63.324800        16.131000
       2229.8500        63.182400        15.816800
       2265.9200        63.016400        15.506800
       2302.5700        62.824700        15.201300
       2339.8100        62.605300        14.900200
       2377.6600        62.354600        14.602400
       2416.1100        62.068200        14.308600
       2455.1900        61.741600        14.019800
       2494.9000        61.370200        13.735700
       2535.2600        60.946000        13.455000
       2576.2600        60.459100        13.178500
       2617.9300        59.896500        12.906200
       2660.2700        59.241200        12.638100
       2703.3000        58.468200        12.373900
       2747.0300        57.540600        12.113900
       2791.4600        56.400400        11.858100
       2836.6100        54.947400        11.606200
       2882.4900        52.982900        11.358100
       2929.1100        50.008000        11.114100
       2976.4800        43.757100        10.873900
       2999.8000        14.758800        10.759000
       3000.0000        14.759800        27.341100
       3024.6300        43.501600        26.998800
       3073.5500        47.706800        26.339400
       3123.2600        45.221000        25.696500
       3136.1000        28.398500        25.534600
       3136.3000        28.410100        36.834400
       3173.7800        51.346000        36.175800
       3225.1100        56.063600        35.304900
       3277.2700        58.959900        34.457600
       3330.2800        61.070200        33.630800
       3384.1500        62.695500        32.825900
       3438.8800        63.960200        32.040300
       3494.5000        64.910400        31.276000
       3551.0200        65.514700        30.529300
       3608.4600        65.535900        29.802800
       3662.9000        57.163800        29.140300
       3663.1000        57.167900        33.787300
       3666.8200        62.625700        33.735800
       3726.1300        67.677900        32.932400
       3786.4000        69.439700        32.150600
       3847.6400        70.709300        31.387800
       3909.8700        71.727900        30.644000
       3973.1100        72.577000        29.918900
       4037.3800        73.293200        29.212100
       4102.6800        73.891300        28.522700
       4169.0300        74.366000        27.849000
       4236.4600        74.675600        27.193900
       4304.9800        74.515700        26.553600
       4326.9000        72.067000        26.354200
       4327.1000        72.068500        27.870200
       4374.6200        75.360300        27.431000
       4445.3700        76.195600        26.798200
       4517.2700        76.737600        26.179400
       4590.3300        77.343300        25.574500
       4651.9000        75.806000        25.082900
       4652.1000        75.813300        26.179700
       4664.5800        77.069700        26.079300
       4740.0300        78.154300        25.486200
       4816.6900        78.789100        24.906400
       4894.6000        79.306500        24.336000
       4973.7700        79.754400        23.776800
       5054.2100        80.153100        23.228500
       5135.9600        80.512500        22.690800
       5219.0300        80.839000        22.163600
       5303.4400        81.136900        21.646900
       5389.2200        81.409300        21.140400
       5476.3900        81.658700        20.644200
       5564.9700        81.887400        20.158400
       5654.9800        82.097300        19.682600
       5746.4400        82.289700        19.216500
       5839.3900        82.465700        18.760300
       5933.8300        82.626500        18.313800
       6029.8100        82.773600        17.877100
       6127.3300        82.907600        17.449400
       6226.4400        83.029100        17.031300
       6327.1500        83.139300        16.622400
       6429.4800        83.238700        16.222400
       6533.4800        83.327900        15.831200
       6639.1500        83.407500        15.448800
       6746.5400        83.478200        15.075200
       6855.6500        83.540300        14.709700
       6966.5400        83.594300        14.352900
       7079.2200        83.641000        14.004100
       7193.7200        83.680500        13.663100
       7310.0700        83.712900        13.330100
       7428.3100        83.738900        13.004900
       7548.4500        83.758900        12.687400
       7670.5400        83.773300        12.377200
       7794.6100        83.782000        12.074300
       7920.6800        83.785400        11.778500
       8048.7900        83.783700        11.489700
       8178.9800        83.777300        11.207700
       8311.2600        83.766400        10.932800
       8445.6900        83.751200        10.664000
       8582.2900        83.731700        10.402200
       8721.1100        83.708400        10.146200
       8862.1600        83.681100        9.8966700
       9005.5000        83.650200        9.6529000
       9151.1600        83.615700        9.4152500
       9299.1700        83.578000        9.1834100
       9449.5800        83.536900        8.9569700
       9602.4200        83.493100        8.7365400
       9757.7300        83.447600        8.5212600
       9915.5500        83.401800        8.3106800
       10075.900        83.353800        8.0959700
       10238.900        83.296500        7.8855900
       10404.500        83.233800        7.6794400
       10572.800        83.165500        7.4774300
       10743.800        83.091600        7.2794800
       10917.600        83.011800        7.0855000
       11094.200        82.925900        6.8954200
       11273.600        82.833500        6.7091500
       11455.900        82.734000        6.5266200
       11641.200        82.626800        6.3477400
       11829.500        82.511200        6.1724400
       12020.800        82.386200        6.0006500
       12215.300        82.250600        5.8322800
       12412.800        82.103000        5.6672800
       12613.600        81.941400        5.5055600
       12817.600        81.763300        5.3470700
       13025.000        81.565500        5.1917300
       13235.600        81.343700        5.0394800
       13449.700        81.091400        4.8902600
       13667.200        80.799500        4.7439900
       13888.300        80.453700        4.6006200
       14112.900        80.029500        4.4600900
       14341.200        79.480800        4.3223400
       14573.100        78.701300        4.1873000
       14808.900        77.335500        4.0549300
       15031.100        62.596700        3.9357800
       15031.300        62.597000        9.9701300
       15048.400        72.503700        9.9503000
       15291.800        77.771900        9.6744900
       15539.100        79.026000        9.4063300
       15790.400        79.728600        9.1456000
       16045.800        80.179400        8.8921100
       16305.400        80.473300        8.6456400
       16569.100        80.647700        8.4060100
       16837.100        80.713500        8.1730300
       17109.400        80.658600        7.9465100
       17386.100        80.430500        7.7262700
       17667.400        79.821600        7.5121300
       17906.400        72.435600        7.3373600
       17906.600        72.435700        10.352000
       17953.100        78.348600        10.312300
       18243.500        80.227700        10.070400
       18538.600        80.435100        9.8341200
       18638.900        77.655600        9.7558900
       18639.100        77.656100        11.112500
       18838.400        81.291600        10.940800
       19143.100        82.117500        10.686700
       19452.700        82.672900        10.437000
       19767.400        83.109400        10.191500
       20087.100        83.472600        9.9504100
       20412.000        83.784000        9.7136600
       20742.100        84.055900        9.4812700
       21077.600        84.296400        9.2532300
       21418.500        84.510800        9.0295600
       21765.000        84.703200        8.8102200
       22117.000        84.876600        8.5952100
       22474.700        85.033500        8.3845000
       22838.200        85.175800        8.1780500
       23207.600        85.305000        7.9758500
       23583.000        85.422500        7.7778500
       23964.400        85.529500        7.5840300
       24352.000        85.626800        7.3943200
       24745.900        85.715400        7.2086900
       25146.200        85.795900        7.0271000
       25552.900        85.869000        6.8495000
       25966.200        85.935300        6.6758300
       26386.100        85.995400        6.5060300
       26812.900        86.049600        6.3400700
       27246.600        86.098500        6.1778700
       27687.300        86.142300        6.0193900
       28135.100        86.181500        5.8645500
       28590.200        86.216400        5.7133200
       29052.600        86.247200        5.5656200
       29522.500        86.274300        5.4214000
       30000.000        86.297900        5.2805900
       30200.000        86.099800        5.3337100
       30400.000        86.108800        5.2758700
       30600.000        86.117100        5.2200000
       30800.000        86.124800        5.1641300
       30900.000        86.128500        5.1371400
       31000.000        86.132400        5.1101500
       31100.000        86.135400        5.0831500
       31200.000        86.138700        5.0561600
       31350.000        86.143400        5.0168500
       31500.000        86.147700        4.9775500
       31700.000        86.153200        4.9266500
       31900.000        86.158200        4.8757500
       32100.000        86.162800        4.8265100
       32300.000        86.167000        4.7772700
       32600.000        86.172600        4.7054900
       33000.000        86.178900        4.6124500
       33400.000        86.183900        4.5224000
       33800.000        86.187700        4.4351600
       34100.000        86.190000        4.3714900
       34500.000        86.192300        4.2888600
       34900.000        86.193900        4.2095100
       35100.000        86.194700        4.1698300
       35300.000        86.195000        4.1301600
       35500.000        86.195000        4.0923800
       35700.000        86.194700        4.0546000
       36030.000        86.193700        3.9922600
       36300.000        86.192500        3.9434800
       36500.000        86.191400        3.9073400
       37000.000        86.187900        3.8201300
       37500.000        86.183400        3.7360000
       38000.000        86.178300        3.6548000
       38500.000        86.172400        3.5760600
       39000.000        86.165700        3.5000000
       39500.000        86.158300        3.4265000
       40000.000        86.150500        3.3554400
       40800.000        86.136900        3.2460900
       41500.000        86.123900        3.1550100
       42300.000        86.108100        3.0558100
       43000.000        86.093700        2.9730400
       43800.000        86.076600        2.8827500
       44500.000        86.061300        2.8072800
       45300.000        86.043700        2.7245800
       46000.000        86.027700        2.6550000
       46500.000        86.016000        2.6070100
       47000.000        86.004200        2.5603900
       47500.000        85.992100        2.5150900
       48000.000        85.980100        2.4710400
       49000.000        85.955800        2.3865600
       49500.000        85.943500        2.3460300
       50000.000        85.931300        2.3065900
       51000.000        85.906600        2.2303600
       52000.000        85.881700        2.1580600
       53000.000        85.856500        2.0894200
       54000.000        85.831300        2.0241800
       55000.000        85.806100        1.9621200
       56000.000        85.780900        1.9027700
       56800.000        85.760700        1.8573200
       57530.000        85.742200        1.8173300
       58000.000        85.730200        1.7923000
       58500.000        85.717500        1.7662700
       59540.000        85.691200        1.7140100
       60000.000        85.679500        1.6916700
       60133.500        85.676200        1.6852500
       60900.000        85.656600        1.6491000
       61600.000        85.638800        1.6171600
       62300.000        85.620900        1.5861800
       63000.000        85.603100        1.5561300
       64000.000        85.577300        1.5147500
       65000.000        85.551500        1.4750800
       65900.000        85.528200        1.4406700
       66830.000        85.504200        1.4064300
       67400.000        85.489300        1.3860800
       68000.000        85.473600        1.3651600
       69000.000        85.447100        1.3313800
       70000.000        85.420600        1.2989000
       71000.000        85.393600        1.2674600
       72000.000        85.366300        1.2372000
       73500.000        85.324400        1.1939100
       74960.000        85.282500        1.1540200
       75500.000        85.266700        1.1398000
       76000.000        85.252000        1.1268800
       77110.000        85.218500        1.0990000
       78600.000        85.172100        1.0632600
       79300.000        85.149700        1.0471000
       79700.000        85.136600        1.0380800
       80000.000        85.126700        1.0313200
       80800.000        85.099800        1.0138900
       81500.000        85.075600       0.99864400
       82300.000        85.047200       0.98207200
       83000.000        85.021500       0.96757200
       83500.000        85.002700       0.95763400
       84000.000        84.983400       0.94769500
       84500.000        84.963700       0.93807400
       85000.000        84.943500       0.92845400
       85800.000        84.910000       0.91366600
       86500.000        84.879500       0.90072700
       87300.000        84.843000       0.88662400
       88000.000        84.809500       0.87428400
       88500.000        84.784600       0.86580600
       89000.000        84.758700       0.85732800
       89500.000        84.731900       0.84910600
       90000.000        84.704000       0.84088500
       90400.000        84.680800       0.83452500
       90800.000        84.656800       0.82816600
       91200.000        84.631900       0.82180600
       91500.000        84.612500       0.81703600
       91900.000        84.585800       0.81095600
       92300.000        84.558000       0.80487500
       92700.000        84.529000       0.79879500
       93000.000        84.506300       0.79423500
       93300.000        84.482800       0.78984000
       93500.000        84.466400       0.78691100
       94000.000        84.424400       0.77958600
       94500.000        84.379300       0.77247200
       94800.000        84.350500       0.76820400
       95000.000        84.330700       0.76535800
       95400.000        84.288900       0.75986800
       95800.000        84.244300       0.75437700
       96200.000        84.196400       0.74888700
       96500.000        84.157900       0.74476900
       96700.000        84.131000       0.74213800
       96900.000        84.102800       0.73950800
       97100.000        84.073400       0.73687700
       97300.000        84.042600       0.73424600
       97500.000        84.010300       0.73161600
       97700.000        83.976200       0.72898500
       97850.000        83.949500       0.72701200
       98000.000        83.921600       0.72503900
       98150.000        83.892400       0.72313400
       98300.000        83.862000       0.72122900
       98500.000        83.819000       0.71868900
       98650.000        83.784800       0.71678400
       98800.000        83.748800       0.71487900
       98900.000        83.723600       0.71360900
       99000.000        83.697500       0.71233900
       99150.000        83.656200       0.71048600
       99300.000        83.612300       0.70863300
       99400.000        83.581300       0.70739700
       99500.000        83.548900       0.70616200
       99650.000        83.497100       0.70430900
       99800.000        83.441000       0.70245600
       99900.000        83.400800       0.70122000
       100000.00        83.358200       0.69998500
