;  Atomic scattering factors for Hg.
;   
;  Concatenation of data from CXRO <http://www-cxro.lbl.gov>
;  and LLNL <http://www-phys.llnl.gov/V_Div/scattering/asf.html>
;  
;  E (eV) f1 f2
;---------------
       10.000000       -9999.0000        3.0725300
       10.161700       -9999.0000        3.0592600
       10.326100       -9999.0000        3.0460500
       10.493100       -9999.0000        3.0329000
       10.662800       -9999.0000        3.0198000
       10.835300       -9999.0000        3.0067600
       11.010600       -9999.0000        3.0244800
       11.188600       -9999.0000        3.0451700
       11.369600       -9999.0000        3.0660000
       11.553500       -9999.0000        3.0869800
       11.740400       -9999.0000        3.1080900
       11.930300       -9999.0000        3.1293500
       12.123200       -9999.0000        3.1507600
       12.319300       -9999.0000        3.1723200
       12.518600       -9999.0000        3.1940200
       12.721000       -9999.0000        3.2158700
       12.926800       -9999.0000        3.2378700
       13.135900       -9999.0000        3.2608500
       13.348300       -9999.0000        3.3133300
       13.564200       -9999.0000        3.3666600
       13.783600       -9999.0000        3.4208400
       14.006600       -9999.0000        3.4759000
       14.233100       -9999.0000        3.5318400
       14.463300       -9999.0000        3.5886900
       14.697300       -9999.0000        3.6545400
       14.935000       -9999.0000        3.7333200
       15.176500       -9999.0000        3.8137900
       15.422000       -9999.0000        3.8960000
       15.671400       -9999.0000        3.9799700
       15.924900       -9999.0000        4.0657600
       16.182500       -9999.0000        4.1534000
       16.444200       -9999.0000        4.2429300
       16.710200       -9999.0000        4.3351900
       16.980500       -9999.0000        4.4501800
       17.255100       -9999.0000        4.5682200
       17.534200       -9999.0000        4.6893800
       17.817800       -9999.0000        4.8137700
       18.106000       -9999.0000        4.9414500
       18.398900       -9999.0000        5.0725200
       18.696400       -9999.0000        5.2070700
       18.998800       -9999.0000        5.3451800
       19.306100       -9999.0000        5.5138600
       19.618400       -9999.0000        5.6910200
       19.935700       -9999.0000        5.8738800
       20.258200       -9999.0000        6.0626100
       20.585800       -9999.0000        6.2574100
       20.918800       -9999.0000        6.4584600
       21.257100       -9999.0000        6.6659700
       21.600900       -9999.0000        6.8786700
       21.950300       -9999.0000        7.0867400
       22.305300       -9999.0000        7.3011100
       22.666100       -9999.0000        7.5219400
       23.032700       -9999.0000        7.7494700
       23.405300       -9999.0000        7.9838800
       23.783800       -9999.0000        8.2253800
       24.168500       -9999.0000        8.4741800
       24.559400       -9999.0000        8.7098900
       24.956600       -9999.0000        8.9436600
       25.360300       -9999.0000        9.1836900
       25.770500       -9999.0000        9.4301700
       26.187300       -9999.0000        9.6832600
       26.610900       -9999.0000        9.9431400
       27.041300       -9999.0000        10.210000
       27.478600       -9999.0000        10.484000
       27.923100       -9999.0000        10.696000
       28.374700       -9999.0000        10.888500
       28.833700       -9999.0000        11.084400
       29.300000       -2.9363600        11.283900
       29.773900       -2.8275200        11.486900
       30.255500       -2.7251400        11.693700
       30.744900       -2.6380200        11.904100
       31.242100       -2.5526000        12.162800
       31.747500       -2.4418700        12.430700
       32.260900       -2.3143000        12.704400
       32.782700       -2.1722100        12.984200
       33.313000       -2.0139600        13.270200
       33.851800       -1.8305200        13.562400
       34.399300       -1.6029600        13.840000
       34.955700       -1.3891500        14.074900
       35.521100       -1.1865900        14.313800
       36.095600      -0.98348500        14.556700
       36.679400      -0.77646700        14.803800
       37.272700      -0.56320400        15.055000
       37.875500      -0.34144700        15.310500
       38.488200      -0.10696500        15.570400
       39.110700       0.13791500        15.822000
       39.743200       0.38724300        16.076600
       40.386100       0.64514000        16.335200
       41.039300       0.91461000        16.598000
       41.703100        1.1981400        16.865000
       42.377600        1.4989100        17.136300
       43.063000        1.8213300        17.412000
       43.759500        2.1817200        17.692100
       44.467300        2.6196700        17.928600
       45.186500        3.0135500        18.096600
       45.917400        3.3847900        18.266100
       46.660000        3.7536700        18.437300
       47.414700        4.1255200        18.610100
       48.181600        4.5044500        18.784500
       48.960900        4.8945400        18.960500
       49.752800        5.3009300        19.138100
       50.557600        5.7323100        19.317500
       51.375300        6.2175300        19.498500
       52.206200        6.7463400        19.566200
       53.050600        7.2144800        19.598700
       53.908700        7.6531600        19.631200
       54.780600        8.0823700        19.663800
       55.666700        8.5073200        19.696400
       56.567000        8.9323500        19.729100
       57.482000        9.3621500        19.761800
       58.411700        9.8014100        19.786900
       59.356400        10.241300        19.806200
       60.316500        10.688800        19.825600
       61.292100        11.150300        19.845000
       62.283400        11.634400        19.864400
       63.290800        12.159800        19.883800
       64.314500        12.788700        19.866400
       65.354700        13.371800        19.656600
       66.411800        13.884400        19.449000
       67.485900        14.365100        19.243600
       68.577500        14.853400        19.040400
       69.686700        15.334200        18.751100
       70.813800        15.750000        18.447800
       71.959100        16.122000        18.149500
       73.123000        16.461700        17.860800
       74.305700        16.790700        17.590700
       75.507600        17.114100        17.324700
       76.728900        17.436600        17.062700
       77.969900        17.777000        16.804700
       79.231000        18.127900        16.474100
       80.512500        18.419800        16.123200
       81.814700        18.672700        15.779900
       83.138000        18.903500        15.443800
       84.482700        19.117100        15.114900
       85.849100        19.317800        14.793000
       87.237700        19.511500        14.477900
       88.648700        19.714200        14.152100
       90.082500        19.881600        13.807500
       91.539500        20.026200        13.471300
       93.020100        20.154900        13.143300
       94.524600        20.271800        12.823300
       96.053500        20.380400        12.511000
       97.607100        20.487900        12.206400
       99.185800        20.614500        11.884400
       100.79000        20.702000        11.540200
       102.42000        20.761900        11.205900
       104.07700        20.808000        10.881300
       105.76000        20.845000        10.566100
       107.47100        20.878700        10.260100
       109.20900        20.920700        9.9628600
       110.97500        21.015000        9.6574400
       112.77000        21.051900        9.2134100
       114.59400        21.010700        8.7898000
       116.44800        20.915300        8.3856700
       118.33100        20.779700        8.0001300
       120.24500        20.598600        7.6323000
       122.19000        20.365500        7.3257000
       124.16600        20.158600        7.0730100
       126.17500        19.957900        6.8290200
       128.21500        19.752900        6.5934400
       130.28900        19.538900        6.3660100
       132.39700        19.306700        6.1504200
       134.53800        19.070500        5.9548000
       136.71400        18.828500        5.7654000
       138.92500        18.574000        5.5820200
       141.17200        18.300900        5.4044900
       143.45600        18.007800        5.2418300
       145.77600        17.695100        5.0875000
       148.13400        17.337000        4.9377200
       150.53000        16.964200        4.8721500
       152.96400        16.596800        4.8134300
       155.43900        16.189100        4.7554100
       157.95300        15.758500        4.8007400
       160.50700        15.378900        4.8843400
       163.10300        15.017000        4.9694100
       165.74200        14.650600        5.0559500
       168.42200        14.244600        5.1440100
       171.14600        13.817800        5.3453900
       173.91500        13.442800        5.5866200
       176.72700        13.105500        5.8387200
       179.58600        12.785000        6.1022100
       182.49100        12.472100        6.3800400
       185.44200        12.174700        6.6788800
       188.44200        11.891100        6.9917200
       191.48900        11.618500        7.3192000
       194.58700        11.355300        7.6620300
       197.73400        11.100600        8.0209000
       200.93200        10.849100        8.3966000
       204.18200        10.601800        8.8049800
       207.48500        10.377600        9.2448500
       210.84000        10.175500        9.7067000
       214.25100        9.9956800        10.191600
       217.71600        9.8424100        10.700800
       221.23700        9.7223700        11.235300
       224.81600        9.6574400        11.796600
       228.45200        9.6773000        12.306600
       232.14700        9.6664800        12.767000
       235.90200        9.6310200        13.244700
       239.71700        9.6000400        13.740300
       243.59500        9.5779800        14.254400
       247.53500        9.5698200        14.787700
       251.53800        9.5795900        15.341000
       255.60700        9.6158700        15.914900
       259.74100        9.6875500        16.489600
       263.94200        9.7688000        17.066700
       268.21100        9.8637200        17.664000
       272.54900        9.9848700        18.282100
       276.95700        10.138900        18.922000
       281.43700        10.336800        19.584200
       285.98900        10.655200        20.233700
       290.61500        10.955800        20.799400
       295.31500        11.237400        21.380900
       300.09200        11.539400        21.978600
       304.94500        11.872300        22.593100
       309.87800        12.250400        23.224700
       314.89000        12.737400        23.874100
       319.98300        13.299900        24.385500
       325.15800        13.796200        24.819600
       330.41800        14.264800        25.261600
       335.76200        14.731300        25.711300
       341.19200        15.208100        26.169100
       346.71100        15.704800        26.635100
       352.31900        16.232300        27.109300
       358.01700        16.858900        27.592000
       363.80800        17.498500        27.927900
       369.69200        18.088000        28.246700
       375.67200        18.666100        28.569100
       381.74800        19.250500        28.895300
       387.92200        19.858000        29.225200
       394.19700        20.530900        29.513200
       400.57300        21.174100        29.734100
       407.05200        21.788300        29.956600
       413.63500        22.408600        30.180800
       420.32600        23.050900        30.406700
       427.12400        23.774000        30.616300
       434.03200        24.456300        30.674400
       441.05200        25.086900        30.732700
       448.18600        25.688400        30.791000
       455.43500        26.279400        30.849500
       462.80200        26.867100        30.891800
       470.28700        27.435400        30.921200
       477.89400        27.987500        30.951100
       485.62300        28.532000        30.980300
       493.47800        29.071200        31.009400
       501.45900        29.610100        31.039400
       509.57000        30.155400        31.070100
       517.81200        30.729000        31.090100
       526.18700        31.316200        31.070000
       534.69800        31.888200        30.975900
       543.34600        32.390300        30.845200
       552.13400        32.836100        30.714100
       561.06500        33.219800        30.577400
       570.13900        33.459100        30.468500
       579.36100        33.719800        30.572300
       588.73200        34.040200        30.737300
       598.25400        34.450900        30.942300
       607.93000        34.928100        31.148100
       617.76300        35.467400        31.355200
       627.75500        36.098000        31.556600
       637.90800        36.803500        31.673600
       648.22600        37.538800        31.680500
       658.71100        38.211600        31.614300
       669.36500        38.860300        31.547400
       680.19100        39.512400        31.460500
       691.19300        40.171400        31.354400
       702.37200        40.857500        31.213100
       713.73300        41.543200        30.967500
       725.27700        42.132400        30.651800
       737.00800        42.650800        30.339000
       748.92800        43.115000        30.029100
       761.04200        43.516600        29.725600
       773.35100        43.836000        29.462800
       785.85900        44.114100        29.323200
       798.57000        44.484800        29.284700
       811.48600        44.927000        29.245900
       824.61100        45.426300        29.206900
       837.94900        46.011300        29.167700
       851.50200        46.676000        29.022300
       865.27400        47.367500        28.746400
       879.26900        47.945200        28.357000
       893.49100        48.445900        27.972500
       907.94300        48.903000        27.592800
       922.62800        49.328700        27.217800
       937.55100        49.729100        26.845900
       952.71500        50.108800        26.478200
       968.12400        50.471500        26.114800
       983.78300        50.822200        25.756000
       999.69500        51.167100        25.396600
       1015.8600        51.517100        25.036200
       1032.2900        51.837900        24.626000
       1048.9900        52.123500        24.222300
       1065.9600        52.382400        23.825400
       1083.2000        52.621000        23.434600
       1100.7200        52.841500        23.049800
       1118.5200        53.045400        22.670900
       1136.6100        53.234100        22.298200
       1155.0000        53.408600        21.931100
       1173.6800        53.569100        21.569400
       1192.6600        53.716500        21.213700
       1211.9500        53.851700        20.863400
       1231.5500        53.974600        20.518300
       1251.4700        54.085400        20.178500
       1271.7200        54.184700        19.844100
       1292.2900        54.272400        19.514600
       1313.1900        54.348800        19.190700
       1334.4300        54.414500        18.871700
       1356.0100        54.469100        18.557400
       1377.9400        54.512700        18.248100
       1400.2300        54.545600        17.943700
       1422.8800        54.567800        17.643900
       1445.8900        54.580000        17.348900
       1469.2800        54.583900        17.056700
       1493.0400        54.579700        16.766100
       1517.1900        54.558900        16.466700
       1541.7300        54.518300        16.170700
       1566.6700        54.458700        15.879700
       1592.0100        54.381500        15.593800
       1617.7600        54.286500        15.312900
       1643.9200        54.173400        15.037100
       1670.5100        54.041500        14.765900
       1697.5300        53.889300        14.499400
       1724.9900        53.720600        14.237300
       1752.8900        53.527000        13.969900
       1781.2400        53.301700        13.703800
       1810.0500        53.042000        13.439800
       1839.3200        52.744200        13.180900
       1869.0700        52.405700        12.927000
       1899.3000        52.021000        12.677800
       1930.0200        51.583100        12.433600
       1961.2400        51.083200        12.194100
       1992.9600        50.506500        11.958900
       2025.2000        49.847100        11.734900
       2057.9500        49.074400        11.502000
       2091.2400        48.146100        11.271300
       2125.0600        47.012400        11.044600
       2159.4300        45.583800        10.820300
       2194.3600        43.691000        10.599200
       2229.8500        40.948600        10.381400
       2265.9200        36.013700        10.166600
       2294.8000        4.4785900        10.000200
       2295.0000        4.4825900        27.311900
       2302.5700        28.076500        27.177000
       2339.8100        36.154200        26.529200
       2377.6600        33.239200        25.898500
       2384.8000        17.960600        25.782300
       2385.0000        17.977200        37.400200
       2416.1100        41.198500        36.744200
       2455.1900        46.013300        35.947900
       2494.9000        49.062800        35.169000
       2535.2600        51.324500        34.408400
       2576.2600        53.103800        33.665400
       2617.9300        54.536900        32.938900
       2660.2700        55.691400        32.229700
       2703.3000        56.589800        31.535500
       2747.0300        57.205900        30.858000
       2791.4600        57.388300        30.195800
       2836.6100        55.911600        29.547900
       2847.0000        49.296000        29.402200
       2847.2000        49.301000        34.019500
       2882.4900        58.625300        33.445100
       2929.1100        60.639600        32.711400
       2976.4800        61.990500        31.994500
       3024.6300        63.051300        31.294000
       3073.5500        63.924500        30.609800
       3123.2600        64.646600        29.940700
       3173.7800        65.219400        29.287800
       3225.1100        65.579900        28.649800
       3277.2700        64.331500        28.025300
       3278.4000        63.083800        28.012100
       3278.6000        63.086600        29.592100
       3330.2800        66.804500        28.939300
       3384.1500        67.654700        28.284600
       3438.8800        68.268000        27.645800
       3494.5000        68.697200        27.022200
       3551.0200        68.625800        26.411200
       3561.5000        67.115000        26.300500
       3561.7000        67.116800        27.382300
       3608.4600        69.649800        26.903300
       3666.8200        70.401300        26.325600
       3726.1300        70.995700        25.757200
       3786.4000        71.510800        25.194800
       3847.6400        71.971000        24.642900
       3909.8700        72.389600        24.099100
       3973.1100        72.773600        23.564300
       4037.3800        73.126500        23.036400
       4102.6800        73.451100        22.518500
       4169.0300        73.751100        22.009000
       4236.4600        74.028200        21.508800
       4304.9800        74.284700        21.017500
       4374.6200        74.522200        20.535200
       4445.3700        74.741600        20.060800
       4517.2700        74.943800        19.596300
       4590.3300        75.130800        19.140000
       4664.5800        75.302600        18.692500
       4740.0300        75.460600        18.253800
       4816.6900        75.605400        17.823700
       4894.6000        75.737900        17.402200
       4973.7700        75.858700        16.989100
       5054.2100        75.968400        16.584500
       5135.9600        76.067600        16.188400
       5219.0300        76.157000        15.800500
       5303.4400        76.236900        15.420700
       5389.2200        76.307800        15.049100
       5476.3900        76.370300        14.685500
       5564.9700        76.424900        14.329800
       5654.9800        76.471600        13.981800
       5746.4400        76.511200        13.641600
       5839.3900        76.543800        13.308900
       5933.8300        76.569900        12.983600
       6029.8100        76.589600        12.665600
       6127.3300        76.603200        12.355000
       6226.4400        76.611200        12.051400
       6327.1500        76.613700        11.754900
       6429.4800        76.610900        11.465100
       6533.4800        76.602900        11.182000
       6639.1500        76.590200        10.905800
       6746.5400        76.572800        10.636000
       6855.6500        76.550900        10.372500
       6966.5400        76.524500        10.115300
       7079.2200        76.494000        9.8641700
       7193.7200        76.459200        9.6190000
       7310.0700        76.420300        9.3798100
       7428.3100        76.377400        9.1463100
       7548.4500        76.330400        8.9186400
       7670.5400        76.279700        8.6965800
       7794.6100        76.225100        8.4797500
       7920.6800        76.166500        8.2684900
       8048.7900        76.104100        8.0620600
       8178.9800        76.037400        7.8607500
       8311.2600        75.966600        7.6647300
       8445.6900        75.891900        7.4736200
       8582.2900        75.812600        7.2867400
       8721.1100        75.728400        7.1049700
       8862.1600        75.639800        6.9277600
       9005.5000        75.545900        6.7547500
       9151.1600        75.446300        6.5863400
       9299.1700        75.341000        6.4220000
       9449.5800        75.228900        6.2618600
       9602.4200        75.109800        6.1057400
       9757.7300        74.982900        5.9535000
       9915.5500        74.847800        5.8049300
       10075.900        74.701900        5.6563400
       10238.900        74.540900        5.5118800
       10404.500        74.364400        5.3714700
       10572.800        74.169900        5.2349800
       10743.800        73.953400        5.1023600
       10917.600        73.709800        4.9734800
       11094.200        73.431200        4.8482700
       11273.600        73.106000        4.7266400
       11455.900        72.714700        4.6084900
       11641.200        72.222600        4.4937500
       11829.500        71.556900        4.3823200
       12020.800        70.517300        4.2741300
       12215.300        67.967000        4.1690900
       12283.800        55.355200        4.1330800
       12284.000        55.355700        10.220700
       12412.800        69.306300        10.036700
       12613.600        71.119200        9.7603200
       12817.600        71.984900        9.4915200
       13025.000        72.501200        9.2301100
       13235.600        72.810800        8.9759200
       13449.700        72.958200        8.7287300
       13667.200        72.938200        8.4883400
       13888.300        72.670900        8.2545900
       14112.900        71.673500        8.0272600
       14208.600        64.907800        7.9334100
       14208.800        64.908100        11.064800
       14341.200        72.163100        10.903600
       14573.100        73.242600        10.630100
       14808.900        73.377000        10.363600
       14839.200        73.723000        10.330100
       14839.400        73.721100        11.830900
       15048.400        73.557900        11.596700
       15291.800        74.797200        11.333700
       15539.100        75.431200        11.074600
       15790.400        75.915800        10.819300
       16045.800        76.316800        10.568100
       16305.400        76.660600        10.320900
       16569.100        76.961300        10.077800
       16837.100        77.227900        9.8387700
       17109.400        77.466300        9.6039500
       17386.100        77.680900        9.3733100
       17667.400        77.874900        9.1468700
       17953.100        78.050900        8.9246400
       18243.500        78.211100        8.7066100
       18538.600        78.357000        8.4927800
       18838.400        78.490100        8.2831400
       19143.100        78.611600        8.0776800
       19452.700        78.722500        7.8763700
       19767.400        78.823800        7.6791800
       20087.100        78.916200        7.4860800
       20412.000        79.000500        7.2970500
       20742.100        79.077200        7.1120400
       21077.600        79.146900        6.9310100
       21418.500        79.210200        6.7539300
       21765.000        79.267500        6.5807400
       22117.000        79.319200        6.4114100
       22474.700        79.365700        6.2458700
       22838.200        79.407300        6.0840800
       23207.600        79.444400        5.9259800
       23583.000        79.477300        5.7715200
       23964.400        79.506200        5.6206500
       24352.000        79.531500        5.4733100
       24745.900        79.553300        5.3294400
       25146.200        79.571800        5.1889800
       25552.900        79.587300        5.0518900
       25966.200        79.600000        4.9180800
       26386.100        79.610000        4.7875200
       26812.900        79.617600        4.6601300
       27246.600        79.622800        4.5358600
       27687.300        79.625900        4.4146600
       28135.100        79.627000        4.2964500
       28590.200        79.626400        4.1811800
       29052.600        79.624600        4.0688000
       29522.500        79.631700        3.9592400
       30000.000        79.580700        3.8524400
       30400.000        79.446000        3.7705900
       30800.000        79.440300        3.6883800
       31200.000        79.433800        3.6090000
       31500.000        79.428400        3.5512300
       31900.000        79.420600        3.4764600
       32300.000        79.412200        3.4041700
       32600.000        79.405600        3.3515200
       33000.000        79.396400        3.2833000
       33400.000        79.386900        3.2171100
       33800.000        79.376900        3.1530300
       34100.000        79.369100        3.1062800
       34500.000        79.358600        3.0456500
       34900.000        79.348000        2.9868900
       35300.000        79.337100        2.9296200
       35700.000        79.325900        2.8746600
       36030.000        79.316400        2.8293200
       36500.000        79.302700        2.7676000
       37000.000        79.287800        2.7042600
       37500.000        79.272700        2.6431800
       38000.000        79.257600        2.5842700
       38500.000        79.242200        2.5270800
       39000.000        79.226800        2.4718800
       39500.000        79.211200        2.4185500
       40000.000        79.195500        2.3670300
       40800.000        79.170000        2.2877000
       41500.000        79.147700        2.2216800
       42300.000        79.121800        2.1498400
       43000.000        79.099100        2.0899400
       43800.000        79.073200        2.0246700
       44500.000        79.050600        1.9701500
       45300.000        79.024700        1.9104800
       46000.000        79.002100        1.8603400
       46400.000        78.989100        1.8326200
       46800.000        78.976100        1.8055400
       47600.000        78.950100        1.7532400
       48400.000        78.924100        1.7032900
       49117.700        78.900700        1.6603600
       49600.000        78.885100        1.6324700
       49800.000        78.878600        1.6211100
       50000.000        78.872100        1.6098900
       51000.000        78.839500        1.5553000
       52000.000        78.806900        1.5035700
       53000.000        78.774000        1.4544900
       54000.000        78.741100        1.4078900
       55000.000        78.707800        1.3636000
       56000.000        78.674600        1.3213200
       56800.000        78.647500        1.2889600
       57530.000        78.622700        1.2605100
       58000.000        78.606500        1.2427100
       58500.000        78.589300        1.2242000
       59540.000        78.552900        1.1870700
       59800.000        78.543700        1.1780600
       60000.000        78.536600        1.1712100
       60800.000        78.508000        1.1442500
       61500.000        78.482300        1.1214600
       62300.000        78.452500        1.0962700
       63000.000        78.425900        1.0749400
       64000.000        78.386800        1.0455900
       65000.000        78.346500        1.0174800
       65900.000        78.308900       0.99307600
       66830.000        78.268400       0.96880600
       67400.000        78.242800       0.95438600
       68000.000        78.215000       0.93956800
       68500.000        78.191100       0.92761300
       69000.000        78.166600       0.91565900
       69500.000        78.141300       0.90417400
       70000.000        78.115300       0.89269000
       70500.000        78.088400       0.88162200
       71000.000        78.060500       0.87055300
       71500.000        78.031600       0.85990800
       72000.000        78.001500       0.84926300
       72400.000        77.976600       0.84114600
       72800.000        77.950800       0.83302800
       73200.000        77.924000       0.82491100
       73500.000        77.903200       0.81882300
       73900.000        77.874600       0.81114600
       74200.000        77.852300       0.80538800
       74600.000        77.821500       0.79771100
       74960.000        77.792500       0.79080200
       75200.000        77.772500       0.78636400
       75500.000        77.746700       0.78081700
       75800.000        77.719800       0.77537500
       76000.000        77.701300       0.77174700
       76300.000        77.672500       0.76646100
       76600.000        77.642500       0.76117500
       76900.000        77.611100       0.75588900
       77110.000        77.588100       0.75218900
       77500.000        77.543400       0.74563000
       77700.000        77.519300       0.74226700
       77900.000        77.494300       0.73890400
       78100.000        77.468300       0.73554000
       78300.000        77.441200       0.73217700
       78600.000        77.398500       0.72713200
       78800.000        77.368400       0.72389700
       79000.000        77.337000       0.72066100
       79150.000        77.312400       0.71823500
       79300.000        77.286800       0.71580800
       79500.000        77.251200       0.71265100
       79700.000        77.213600       0.70949400
       79850.000        77.184000       0.70712600
       80000.000        77.153100       0.70475800
       80150.000        77.120600       0.70245100
       80300.000        77.086500       0.70014400
       80400.000        77.062900       0.69860600
       80500.000        77.038300       0.69706800
       80650.000        76.999800       0.69476100
       80800.000        76.959000       0.69245400
       80900.000        76.930400       0.69091600
       81000.000        76.900600       0.68937800
       81150.000        76.853300       0.68714900
       81300.000        76.802600       0.68491900
       81400.000        76.766600       0.68343300
       81500.000        76.728700       0.68194700
       81580.000        76.696800       0.68075800
       81650.000        76.667700       0.67971800
       81730.000        76.632900       0.67852900
       81800.000        76.601000       0.67748800
       81900.000        76.552900       0.67600200
       82000.000        76.501200       0.67451600
       82100.000        76.445500       0.67307200
       82200.000        76.385200       0.67162800
       82250.000        76.353000       0.67090600
       82300.000        76.319400       0.67018400
       82350.000        76.284100       0.66946200
       82400.000        76.247100       0.66874000
       82470.000        76.191800       0.66772900
       82510.000        76.158300       0.66715200
       82550.000        76.123200       0.66657400
       82590.000        76.086400       0.66599600
       82630.000        76.047600       0.66541900
       82670.000        76.006600       0.66484100
       82700.000        75.974300       0.66440800
       82750.000        75.917300       0.66370300
       82800.000        75.855500       0.66299800
       82850.000        75.788200       0.66229300
       82880.000        75.744700       0.66187000
       82900.000        75.714300       0.66158800
       82920.000        75.682600       0.66130500
       82950.000        75.632400       0.66088200
       82970.000        75.596900       0.66060000
       83000.000        75.540500       0.66017700
       83020.000        75.500400       0.65989500
       83050.000        75.436100       0.65947200
       83070.000        75.389900       0.65919000
       83100.000        75.315100       0.65876700
       83115.000        75.274700       0.65855500
       83130.000        75.232100       0.65834400
       83150.000        75.171400       0.65806200
       83170.000        75.105500       0.65778000
       83190.000        75.033500       0.65749800
       83210.000        74.954000       0.65721600
       83220.000        74.911000       0.65707500
       83230.000        74.865500       0.65693400
       83240.000        74.817200       0.65679300
       83250.000        74.765700       0.65665200
       83260.000        74.710500       0.65651100
       83270.000        74.651100       0.65637000
       83280.000        74.586800       0.65622900
       83290.000        74.516900       0.65608800
       83300.000        74.440000       0.65594700
       83310.000        74.354800       0.65580600
       83315.000        74.308500       0.65573500
       83320.000        74.259200       0.65566400
       83325.000        74.206700       0.65559400
       83330.000        74.150400       0.65552300
       83335.000        74.089700       0.65545300
       83340.000        74.024100       0.65538200
       83345.000        73.952500       0.65531200
       83350.000        73.873800       0.65524100
       83355.000        73.786400       0.65517100
       83360.000        73.688200       0.65510000
       83363.000        73.622700       0.65505800
       83365.000        73.576100       0.65503000
       83368.000        73.500500       0.65498800
       83370.000        73.446000       0.65495900
       83372.000        73.387100       0.65493100
       83374.000        73.323800       0.65490300
       83375.500        73.272900       0.65488200
       83377.000        73.218200       0.65486100
       83379.000        73.139500       0.65483200
       83381.000        73.052300       0.65480400
       83383.000        72.954700       0.65477600
       83385.000        72.843900       0.65474800
       83387.000        72.716000       0.65472000
       83389.000        72.564900       0.65469100
       83390.000        72.478200       0.65467700
       83391.000        72.381200       0.65466300
       83392.000        72.272800       0.65464900
       83393.000        72.148300       0.65463500
       83394.000        72.004700       0.65462100
       83395.000        71.833500       0.65460700
       83396.000        71.625400       0.65459300
       83397.000        71.360500       0.65457900
       83398.000        71.007000       0.65456400
       83399.000        70.490600       0.65455000
       83399.900        69.742700       0.65453800
       83400.800        68.382800       0.65452500
       83400.800        68.375500       0.65452500
       83400.900        68.583200        1.3739300
       83401.000        68.782200        2.0933300
       83401.200        69.183600        3.5321400
       83401.600        69.980200        6.4097600
       83402.400        71.528800        12.165000
       83403.500        73.462700       0.65448600
       83403.800        74.034900       0.65448200
       83404.100        74.613100       0.65447800
       83405.200        72.845200        1.8188600
       83406.900        71.930900        2.2758700
       83407.900        71.924000        3.5490800
       83409.000        72.318600        3.4995800
       83410.500        72.810400        3.4337700
       83412.000        72.981300        3.3688700
       83413.500        73.095600        3.3152800
       83415.000        73.184400        3.2817100
       83416.500        73.263100        3.2486600
       83418.000        73.327800        3.2156000
       83419.500        73.378800        3.1887300
       83421.000        73.424700        3.1725300
       83422.500        73.469300        3.1565900
       83424.000        73.508500        3.1406400
       83425.500        73.542400        3.1277200
       83427.000        73.573900        3.1205300
       83428.500        73.605000        3.1134000
       83430.000        73.633300        3.1062500
       83431.500        73.659700        3.1039000
       83433.000        73.686600        3.1015300
       83435.000        73.719600        3.0984000
       83438.000        73.766800        3.0996600
       83440.000        73.797100        3.1005000
       83445.000        73.869900        3.1080400
       83450.000        73.939700        3.1179400
       83455.000        74.007300        3.1282400
       83460.000        74.072900        3.1375500
       83465.000        74.136100        3.1450100
       83470.000        74.196500        3.1503600
       83478.000        74.286500        3.1546900
       83485.000        74.358500        3.1550000
       83493.000        74.432800        3.1528900
       83500.000        74.491400        3.1500200
       83505.000        74.530000        3.1481100
       83510.000        74.566100        3.1462000
       83520.000        74.632600        3.1436000
       83528.000        74.681600        3.1432500
       83535.000        74.721900        3.1429500
       83542.000        74.760400        3.1440600
       83550.000        74.802800        3.1453200
       83560.000        74.853800        3.1472800
       83570.000        74.902900        3.1492300
       83585.000        74.972300        3.1496300
       83600.000        75.036700        3.1500200
       83615.000        75.096500        3.1479500
       83630.000        75.151000        3.1458800
       83640.000        75.185100        3.1446600
       83650.000        75.217300        3.1434400
       83670.000        75.278300        3.1430700
       83700.000        75.363600        3.1425200
       83720.000        75.416200        3.1413900
       83750.000        75.489000        3.1396900
       83780.000        75.555900        3.1379900
       83800.000        75.597500        3.1368600
       83830.000        75.656400        3.1353800
       83850.000        75.693500        3.1343900
       83880.000        75.746300        3.1329100
       83900.000        75.779800        3.1319200
       83920.000        75.812000        3.1309400
       83950.000        75.858200        3.1294600
       84000.000        75.930400        3.1269900
       84050.000        75.997100        3.1233500
       84100.000        76.058300        3.1197100
       84150.000        76.115100        3.1160700
       84200.000        76.167800        3.1124400
       84250.000        76.217200        3.1098200
       84300.000        76.264200        3.1072100
       84350.000        76.308800        3.1046000
       84400.000        76.351100        3.1019800
       84450.000        76.391500        3.0997900
       84500.000        76.430300        3.0976000
       84600.000        76.503900        3.0932200
       84650.000        76.538900        3.0901700
       84700.000        76.572100        3.0871100
       84750.000        76.604000        3.0840600
       84800.000        76.634700        3.0810100
       84900.000        76.692800        3.0749000
       85000.000        76.747000        3.0687900
       85080.000        76.787900        3.0644300
       85150.000        76.822300        3.0606200
       85230.000        76.860000        3.0562600
       85300.000        76.891800        3.0524500
       85400.000        76.935800        3.0470100
       85500.000        76.977000        3.0415600
       85650.000        77.035100        3.0333900
       85800.000        77.089900        3.0252200
       85900.000        77.124500        3.0197800
       86000.000        77.157500        3.0143300
       86150.000        77.205100        3.0074500
       86300.000        77.250800        3.0005600
       86400.000        77.280300        2.9959700
       86500.000        77.309300        2.9913800
       86650.000        77.351300        2.9833000
       86800.000        77.391000        2.9752200
       86900.000        77.416600        2.9698400
       87000.000        77.441700        2.9644500
       87200.000        77.489600        2.9523200
       87400.000        77.534000        2.9401900
       87600.000        77.575900        2.9285800
       87800.000        77.615600        2.9169600
       88000.000        77.653400        2.9058300
       88200.000        77.689400        2.8947100
       88350.000        77.715300        2.8863600
       88500.000        77.740100        2.8780200
       88700.000        77.772000        2.8680200
       88900.000        77.802900        2.8580300
       89100.000        77.832800        2.8480300
       89300.000        77.861400        2.8380400
       89500.000        77.889200        2.8286000
       89700.000        77.916300        2.8191700
       89850.000        77.935900        2.8120900
       90000.000        77.955100        2.8050100
       90400.000        78.004500        2.7871700
       90800.000        78.051400        2.7693200
       91200.000        78.096100        2.7514800
       91500.000        78.128600        2.7381000
       91700.000        78.149700        2.7289700
       91900.000        78.170000        2.7198300
       92100.000        78.189700        2.7107000
       92300.000        78.209000        2.7015600
       92700.000        78.246100        2.6832900
       93000.000        78.272900        2.6695900
       93300.000        78.298800        2.6560500
       93500.000        78.315500        2.6470200
       93800.000        78.339900        2.6334800
       94000.000        78.355800        2.6244600
       94300.000        78.379000        2.6109100
       94500.000        78.393900        2.6018900
       94800.000        78.415700        2.5883500
       95000.000        78.429900        2.5793200
       95400.000        78.457300        2.5616300
       95800.000        78.483400        2.5439300
       96200.000        78.508300        2.5262400
       96500.000        78.526400        2.5129700
       96900.000        78.549600        2.4959900
       97300.000        78.571800        2.4790100
       97700.000        78.593100        2.4620300
       98000.000        78.608400        2.4493000
       98300.000        78.623200        2.4372800
       98500.000        78.633000        2.4292700
       99000.000        78.656700        2.4092400
       99500.000        78.679500        2.3896100
       99800.000        78.692600        2.3779900
       100000.00        78.701100        2.3702400
