;  Atomic scattering factors for In.
;   
;  Concatenation of data from CXRO <http://www-cxro.lbl.gov>
;  and LLNL <http://www-phys.llnl.gov/V_Div/scattering/asf.html>
;  
;  E (eV) f1 f2
;---------------
       10.000000       -9999.0000        2.1624400
       10.161700       -9999.0000        2.0700200
       10.326100       -9999.0000        1.9815500
       10.493100       -9999.0000        1.8968600
       10.662800       -9999.0000        1.8157900
       10.835300       -9999.0000        1.7284400
       11.010600       -9999.0000        1.5498500
       11.188600       -9999.0000        1.3573100
       11.369600       -9999.0000       0.99325200
       11.553500       -9999.0000       0.74201800
       11.740400       -9999.0000       0.65818000
       11.930300       -9999.0000       0.61266700
       12.123200       -9999.0000       0.57369600
       12.319300       -9999.0000       0.53737400
       12.518600       -9999.0000       0.50977300
       12.721000       -9999.0000       0.49137300
       12.926800       -9999.0000       0.47363800
       13.135900       -9999.0000       0.45658900
       13.348300       -9999.0000       0.44037000
       13.564200       -9999.0000       0.42472800
       13.783600       -9999.0000       0.41403400
       14.006600       -9999.0000       0.40484300
       14.233100       -9999.0000       0.39611300
       14.463300       -9999.0000       0.38819800
       14.697300       -9999.0000       0.38598000
       14.935000       -9999.0000       0.38739100
       15.176500       -9999.0000       0.39615200
       15.422000       -9999.0000       0.41041900
       15.671400       -9999.0000       0.43195100
       15.924900       -9999.0000       0.45591200
       16.182500       -9999.0000       0.48965100
       16.444200       -9999.0000       0.69163400
       16.710200       -9999.0000        1.0828300
       16.980500       -9999.0000        1.4922600
       17.255100       -9999.0000        1.7842300
       17.534200       -9999.0000        1.9214400
       17.817800       -9999.0000        1.9416700
       18.106000       -9999.0000        1.9576600
       18.398900       -9999.0000        1.9660000
       18.696400       -9999.0000        1.9560500
       18.998800       -9999.0000        1.9246500
       19.306100       -9999.0000        1.9035200
       19.618400       -9999.0000        1.8855700
       19.935700       -9999.0000        1.8285300
       20.258200       -9999.0000        1.7674900
       20.585800       -9999.0000        1.7540900
       20.918800       -9999.0000        1.7410600
       21.257100       -9999.0000        1.7281200
       21.600900       -9999.0000        1.7351500
       21.950300       -9999.0000        1.7715600
       22.305300       -9999.0000        1.8087400
       22.666100       -9999.0000        1.8647100
       23.032700       -9999.0000        1.9537100
       23.405300       -9999.0000        2.0469600
       23.783800       -9999.0000        2.1446600
       24.168500       -9999.0000        2.2557900
       24.559400       -9999.0000        2.3757800
       24.956600       -9999.0000        2.5021600
       25.360300       -9999.0000        2.6352600
       25.770500       -9999.0000        2.7657600
       26.187300       -9999.0000        2.9394300
       26.610900       -9999.0000        3.1334800
       27.041300       -9999.0000        3.3403400
       27.478600       -9999.0000        3.5022300
       27.923100       -9999.0000        3.6676400
       28.374700       -9999.0000        3.8408700
       28.833700       -9999.0000        4.0666900
       29.300000       -1.5198700        4.3279200
       29.773900       -1.5470600        4.5669500
       30.255500       -1.5833400        4.7545400
       30.744900       -1.6475200        4.9498300
       31.242100       -1.7413600        5.1603600
       31.747500       -1.8333200        5.4247500
       32.260900       -1.8941900        5.7026900
       32.782700       -1.9399500        5.9948800
       33.313000       -1.9625500        6.3014500
       33.851800       -1.9431900        6.6211400
       34.399300       -1.9068700        6.8718400
       34.955700       -1.8974000        7.1320400
       35.521100       -1.8916800        7.4020900
       36.095600       -1.8841500        7.6823600
       36.679400       -1.8724200        7.9732500
       37.272700       -1.8534600        8.2751500
       37.875500       -1.8252800        8.5884800
       38.488200       -1.7847200        8.9136800
       39.110700       -1.7150600        9.2511800
       39.743200       -1.6250600        9.5711300
       40.386100       -1.5411500        9.8802000
       41.039300       -1.4572200        10.199300
       41.703100       -1.3665700        10.528600
       42.377600       -1.2648400        10.868600
       43.063000       -1.1487400        11.219600
       43.759500       -1.0143500        11.581900
       44.467300      -0.82735000        11.955900
       45.186500      -0.61762100        12.273500
       45.917400      -0.43616400        12.586300
       46.660000      -0.25028900        12.907100
       47.414700     -0.055007000        13.236100
       48.181600       0.15703700        13.573400
       48.960900       0.40846300        13.909400
       49.752800       0.66824400        14.197500
       50.557600       0.90388200        14.491500
       51.375300        1.1455600        14.791600
       52.206200        1.3951200        15.098000
       53.050600        1.6581400        15.410600
       53.908700        1.9383800        15.720700
       54.780600        2.2286100        16.027200
       55.666700        2.5284700        16.339600
       56.567000        2.8482100        16.658200
       57.482000        3.1959400        16.982900
       58.411700        3.5961300        17.314000
       59.356400        4.0711500        17.566900
       60.316500        4.5131600        17.709300
       61.292100        4.8729300        17.852800
       62.283400        5.2091700        17.997500
       63.290800        5.4778400        18.143400
       64.314500        5.7131200        18.380100
       65.354700        6.0160200        18.714600
       66.411800        6.3930300        19.055100
       67.485900        6.9602700        19.401800
       68.577500        7.5543700        19.442600
       69.686700        7.8969300        19.447100
       70.813800        8.0990000        19.466100
       71.959100        8.2515400        19.781000
       73.123000        8.5174300        20.100900
       74.305700        8.6878000        20.426100
       75.507600        8.8572700        21.018900
       76.728900        9.2738200        21.790100
       77.969900        9.8980200        22.589700
       79.231000        10.844200        23.418600
       80.512500        12.043600        24.011900
       81.814700        13.233400        24.323500
       83.138000        14.412800        24.639200
       84.482700        15.963600        24.958900
       85.849100        17.650400        24.661000
       87.237700        18.923400        24.090000
       88.648700        20.023100        23.532300
       90.082500        21.040000        22.987400
       91.539500        22.027700        22.455200
       93.020100        23.074700        21.935200
       94.524600        24.334900        21.412400
       96.053500        25.530400        20.034600
       97.607100        26.200600        18.745400
       99.185800        26.654400        17.539200
       100.79000        26.962100        16.410500
       102.42000        27.163000        15.354600
       104.07700        27.281200        14.366500
       105.76000        27.335900        13.442100
       107.47100        27.340800        12.577100
       109.20900        27.328700        11.767500
       110.97500        27.277200        10.949900
       112.77000        27.151100        10.189100
       114.59400        26.992800        9.4811500
       116.44800        26.809200        8.8224100
       118.33100        26.606300        8.2094500
       120.24500        26.390500        7.6390500
       122.19000        26.166400        7.1083000
       124.16600        25.939900        6.6144200
       126.17500        25.717800        6.1548500
       128.21500        25.512900        5.7272100
       130.28900        25.365900        5.3292900
       132.39700        25.285800        4.7905000
       134.53800        25.063900        4.1082000
       136.71400        24.639500        3.5231000
       138.92500        24.150000        3.0213200
       141.17200        23.603000        2.6355300
       143.45600        23.069300        2.3756300
       145.77600        22.578000        2.1500400
       148.13400        22.082500        1.9768100
       150.53000        21.593000        1.8658800
       152.96400        21.129000        1.8141900
       155.43900        20.700900        1.8125600
       157.95300        20.319200        1.8470200
       160.50700        19.978300        1.8880000
       163.10300        19.664000        1.9457600
       165.74200        19.378300        2.0052900
       168.42200        19.107100        2.0679200
       171.14600        18.851600        2.1472300
       173.91500        18.616900        2.2295900
       176.72700        18.396600        2.3151100
       179.58600        18.187200        2.4039100
       182.49100        17.988200        2.5024900
       185.44200        17.803500        2.6056500
       188.44200        17.630200        2.7130600
       191.48900        17.467800        2.8249000
       194.58700        17.317100        2.9413500
       197.73400        17.177100        3.0593500
       200.93200        17.044500        3.1802200
       204.18200        16.920500        3.3058700
       207.48500        16.805900        3.4364800
       210.84000        16.701900        3.5722600
       214.25100        16.610600        3.7134000
       217.71600        16.539700        3.8601200
       221.23700        16.484900        3.9818600
       224.81600        16.422900        4.1023700
       228.45200        16.362600        4.2265300
       232.14700        16.307900        4.3544500
       235.90200        16.260600        4.4862400
       239.71700        16.222400        4.6220100
       243.59500        16.209600        4.7619000
       247.53500        16.209200        4.8720000
       251.53800        16.192300        4.9795000
       255.60700        16.178500        5.0893800
       259.74100        16.169300        5.2016800
       263.94200        16.167700        5.3164500
       268.21100        16.185500        5.4337600
       272.54900        16.225700        5.5387600
       276.95700        16.264300        5.5914600
       281.43700        16.279100        5.6446500
       285.98900        16.286600        5.6983600
       290.61500        16.291400        5.7525700
       295.31500        16.297700        5.8073100
       300.09200        16.314400        5.8625600
       304.94500        16.350900        5.8887900
       309.87800        16.367600        5.8707000
       314.89000        16.345600        5.8526600
       319.98300        16.308600        5.8346700
       325.15800        16.258000        5.8167500
       330.41800        16.198600        5.7988700
       335.76200        16.129000        5.7645100
       341.19200        16.033800        5.7234000
       346.71100        15.914800        5.6825800
       352.31900        15.774800        5.6420400
       358.01700        15.613400        5.6018000
       363.80800        15.430500        5.5618400
       369.69200        15.223600        5.5151600
       375.67200        14.982700        5.4647100
       381.74800        14.703700        5.4147300
       387.92200        14.383500        5.3652000
       394.19700        14.008800        5.3161300
       400.57300        13.572700        5.2797000
       407.05200        13.083200        5.2753500
       413.63500        12.537400        5.2710100
       420.32600        11.884600        5.2666600
       427.12400        11.116900        5.3136400
       434.03200        10.273600        5.4161300
       441.05200        9.4759600        5.5205900
       443.80000        10.673400        5.5615700
       444.00000        10.563900        3.5856300
       448.18600        6.6816300        4.4925100
       455.43500        3.9607400        6.6058300
       462.80200        2.5292400        9.7132900
       470.28700        2.2102200        12.518700
       477.89400        1.9758900        15.320600
       485.62300        2.7137100        18.749800
       493.47800        4.8266000        20.857100
       501.45900        6.6705400        22.328300
       509.57000        8.3000000        23.211200
       517.81200        9.8003500        24.129100
       526.18700        11.474200        24.738600
       534.69800        12.970000        24.958300
       543.34600        14.329400        25.180000
       552.13400        15.646100        25.070400
       561.06500        16.617500        24.884500
       570.13900        17.446100        24.699900
       579.36100        18.123000        24.516700
       588.73200        18.680900        24.396600
       598.25400        19.205100        24.359500
       607.93000        19.705200        24.322300
       617.76300        20.216400        24.285300
       627.75500        20.675100        24.109400
       637.90800        20.612900        23.756200
       648.22600        20.100200        23.930200
       658.71100        19.893200        25.160100
       669.36500        20.333800        26.453200
       680.19100        21.424700        27.812800
       691.19300        23.184000        28.895200
       702.37200        25.006400        28.603300
       713.73300        26.243600        28.314300
       725.27700        27.365000        28.028200
       737.00800        28.385000        27.582800
       748.92800        29.165800        27.098200
       761.04200        29.793200        26.622200
       773.35100        30.195800        26.217900
       785.85900        30.572300        26.156300
       798.57000        31.150900        26.094900
       811.48600        31.772700        26.033700
       824.61100        32.518600        25.972500
       837.94900        33.297800        25.680300
       851.50200        33.933600        25.386400
       865.27400        34.553600        25.095700
       879.26900        35.211800        24.808400
       893.49100        35.870700        24.402500
       907.94300        36.410800        23.970500
       922.62800        36.905300        23.546000
       937.55100        37.363400        23.132200
       952.71500        37.794900        22.726600
       968.12400        38.205300        22.328900
       983.78300        38.600300        21.938200
       999.69500        38.987800        21.548500
       1015.8600        39.369900        21.159900
       1032.2900        39.734700        20.721400
       1048.9900        40.051600        20.291400
       1065.9600        40.341000        19.870200
       1083.2000        40.607900        19.457800
       1100.7200        40.855600        19.053900
       1118.5200        41.086000        18.658400
       1136.6100        41.300800        18.271200
       1155.0000        41.501400        17.891900
       1173.6800        41.688700        17.520400
       1192.6600        41.863700        17.156900
       1211.9500        42.027600        16.800800
       1231.5500        42.181000        16.452100
       1251.4700        42.324300        16.110500
       1271.7200        42.458200        15.776000
       1292.2900        42.583300        15.448600
       1313.1900        42.700200        15.128100
       1334.4300        42.809400        14.814200
       1356.0100        42.911300        14.506700
       1377.9400        43.006200        14.205600
       1400.2300        43.094500        13.910700
       1422.8800        43.176500        13.621900
       1445.8900        43.252500        13.339200
       1469.2800        43.323100        13.062300
       1493.0400        43.388300        12.791100
       1517.1900        43.448500        12.525400
       1541.7300        43.503800        12.265000
       1566.6700        43.554400        12.010000
       1592.0100        43.600600        11.760400
       1617.7600        43.642700        11.515900
       1643.9200        43.681100        11.276600
       1670.5100        43.716000        11.042100
       1697.5300        43.747700        10.812500
       1724.9900        43.778800        10.587600
       1752.8900        43.807900        10.361900
       1781.2400        43.829500        10.138900
       1810.0500        43.846000        9.9189800
       1839.3200        43.857000        9.7040200
       1869.0700        43.863800        9.4937700
       1899.3000        43.866800        9.2881300
       1930.0200        43.866200        9.0868300
       1961.2400        43.862000        8.8899000
       1992.9600        43.854100        8.6972900
       2025.2000        43.845300        8.5121600
       2057.9500        43.836400        8.3244500
       2091.2400        43.820700        8.1397800
       2125.0600        43.801000        7.9585500
       2159.4300        43.777400        7.7805000
       2194.3600        43.749700        7.6061700
       2229.8500        43.718500        7.4348400
       2265.9200        43.683100        7.2665700
       2302.5700        43.643600        7.1016800
       2339.8100        43.600100        6.9395800
       2377.6600        43.552100        6.7809300
       2416.1100        43.499800        6.6250700
       2455.1900        43.442900        6.4722300
       2494.9000        43.381200        6.3223100
       2535.2600        43.314300        6.1751900
       2576.2600        43.242000        6.0309000
       2617.9300        43.164100        5.8894300
       2660.2700        43.080000        5.7506100
       2703.3000        42.989200        5.6144700
       2747.0300        42.891300        5.4810000
       2791.4600        42.785500        5.3500700
       2836.6100        42.671000        5.2217000
       2882.4900        42.546900        5.0957800
       2929.1100        42.412100        4.9723400
       2976.4800        42.265100        4.8512400
       3024.6300        42.104300        4.7325300
       3073.5500        41.927600        4.6161500
       3123.2600        41.732300        4.5019400
       3173.7800        41.515000        4.3900200
       3225.1100        41.271200        4.2802900
       3277.2700        40.995100        4.1727000
       3330.2800        40.678100        4.0671700
       3384.1500        40.308400        3.9636900
       3438.8800        39.867600        3.8623000
       3494.5000        39.325600        3.7628200
       3551.0200        38.627400        3.6653300
       3608.4600        37.654100        3.5696800
       3666.8200        36.053900        3.4759200
       3726.1300        29.517300        3.3840200
       3730.0000        21.053200        3.3781600
       3730.2000        21.055000        10.679100
       3786.4000        35.500400        10.437800
       3847.6400        36.729000        10.185000
       3909.8700        36.453700        9.9380700
       3937.9000        30.310500        9.8301200
       3938.1000        30.316000        13.500400
       3973.1100        37.513200        13.311300
       4037.3800        39.265300        12.975200
       4102.6800        40.192300        12.647500
       4169.0300        40.703300        12.328800
       4236.4600        39.079000        12.018500
       4237.4000        37.903600        12.014300
       4237.6000        37.908900        13.839500
       4304.9800        41.982800        13.521700
       4374.6200        42.909100        13.205900
       4445.3700        43.601800        12.895500
       4517.2700        44.173100        12.590600
       4590.3300        44.663500        12.291000
       4664.5800        45.092900        11.996700
       4740.0300        45.474300        11.707800
       4816.6900        45.816100        11.424300
       4894.6000        46.124500        11.146400
       4973.7700        46.404000        10.873700
       5054.2100        46.658200        10.606400
       5135.9600        46.890200        10.344500
       5219.0300        47.102400        10.087900
       5303.4400        47.296700        9.8365200
       5389.2200        47.474700        9.5903300
       5476.3900        47.638000        9.3494200
       5564.9700        47.788100        9.1136800
       5654.9800        47.925900        8.8828500
       5746.4400        48.052200        8.6571800
       5839.3900        48.168300        8.4364600
       5933.8300        48.274700        8.2206200
       6029.8100        48.372300        8.0095600
       6127.3300        48.461500        7.8033000
       6226.4400        48.543100        7.6018000
       6327.1500        48.617700        7.4048900
       6429.4800        48.685500        7.2125600
       6533.4800        48.747100        7.0247000
       6639.1500        48.803000        6.8412000
       6746.5400        48.853500        6.6620700
       6855.6500        48.898900        6.4872100
       6966.5400        48.939700        6.3164900
       7079.2200        48.975900        6.1498600
       7193.7200        49.008000        5.9872400
       7310.0700        49.036200        5.8287000
       7428.3100        49.060900        5.6740800
       7548.4500        49.082200        5.5231500
       7670.5400        49.100300        5.3759100
       7794.6100        49.115400        5.2324100
       7920.6800        49.127700        5.0924400
       8048.7900        49.137400        4.9560400
       8178.9800        49.144600        4.8230500
       8311.2600        49.149700        4.6933800
       8445.6900        49.152500        4.5668700
       8582.2900        49.153200        4.4438700
       8721.1100        49.152200        4.3237500
       8862.1600        49.149300        4.2067900
       9005.5000        49.144700        4.0928600
       9151.1600        49.138600        3.9819400
       9299.1700        49.131200        3.8739000
       9449.5800        49.122400        3.7685900
       9602.4200        49.112400        3.6658800
       9757.7300        49.100900        3.5660100
       9915.5500        49.088500        3.4689500
       10075.900        49.075300        3.3742300
       10238.900        49.061000        3.2819900
       10404.500        49.045800        3.1921900
       10572.800        49.029800        3.1047600
       10743.800        49.013000        3.0196500
       10917.600        48.995500        2.9368000
       11094.200        48.977300        2.8561500
       11273.600        48.958500        2.7776500
       11455.900        48.939100        2.7012500
       11641.200        48.919100        2.6268900
       11829.500        48.898700        2.5545200
       12020.800        48.877700        2.4841000
       12215.300        48.856300        2.4155700
       12412.800        48.834500        2.3488900
       12613.600        48.812300        2.2840000
       12817.600        48.789800        2.2208700
       13025.000        48.766800        2.1594500
       13235.600        48.743600        2.0996900
       13449.700        48.720000        2.0415500
       13667.200        48.696100        1.9849800
       13888.300        48.671900        1.9299600
       14112.900        48.647400        1.8764300
       14341.200        48.622600        1.8243600
       14573.100        48.597600        1.7737100
       14808.900        48.572200        1.7244400
       15048.400        48.546500        1.6765200
       15291.800        48.520600        1.6299000
       15539.100        48.494300        1.5845700
       15790.400        48.467700        1.5404700
       16045.800        48.440800        1.4975800
       16305.400        48.413500        1.4558700
       16569.100        48.385800        1.4153000
       16837.100        48.357700        1.3758500
       17109.400        48.329200        1.3374700
       17386.100        48.300200        1.3001600
       17667.400        48.270600        1.2638600
       17953.100        48.240500        1.2285700
       18243.500        48.209700        1.1942400
       18538.600        48.178200        1.1608600
       18838.400        48.145900        1.1284000
       19143.100        48.112800        1.0968300
       19452.700        48.078600        1.0661300
       19767.400        48.043400        1.0362800
       20087.100        48.006900        1.0072500
       20412.000        47.969100       0.97901500
       20742.100        47.929700       0.95156000
       21077.600        47.888400       0.92486000
       21418.500        47.845100       0.89889600
       21765.000        47.799400       0.87364600
       22117.000        47.750900       0.84909200
       22474.700        47.699200       0.82521400
       22838.200        47.643700       0.80199300
       23207.600        47.583500       0.77941100
       23583.000        47.517900       0.75744900
       23964.400        47.445500       0.73609300
       24352.000        47.364600       0.71532200
       24745.900        47.273000       0.69512400
       25146.200        47.167200       0.67547900
       25552.900        47.042200       0.65637500
       25966.200        46.889700       0.63779500
       26386.100        46.695300       0.61972400
       26812.900        46.429500       0.60215000
       27246.600        46.016800       0.58505700
       27687.300        45.126100       0.56843200
       27939.800        37.812500       0.55923500
       27940.000        37.812700        3.5148500
       28135.100        44.979700        3.4769700
       28590.200        46.170400        3.3911900
       29052.600        46.716600        3.3070200
       29522.500        47.086500        3.2244700
       30000.000        47.321500        3.1435500
       30100.000        47.383600        3.1660700
       30200.000        47.430400        3.1492900
       30300.000        47.475000        3.1325000
       30400.000        47.517500        3.1157200
       30500.000        47.558200        3.0989400
       30600.000        47.597400        3.0821500
       30700.000        47.635100        3.0653700
       30800.000        47.671400        3.0485900
       30900.000        47.706100        3.0321500
       31000.000        47.739300        3.0157100
       31100.000        47.771200        2.9992700
       31200.000        47.802000        2.9828300
       31270.000        47.822800        2.9716600
       31350.000        47.846000        2.9589000
       31420.000        47.865700        2.9477400
       31500.000        47.887400        2.9349800
       31600.000        47.913800        2.9199400
       31700.000        47.939500        2.9049100
       31800.000        47.964500        2.8898700
       31900.000        47.988800        2.8748300
       32000.000        48.012300        2.8602800
       32100.000        48.035200        2.8457300
       32200.000        48.057400        2.8311800
       32300.000        48.079000        2.8166300
       32450.000        48.110200        2.7954200
       32600.000        48.140200        2.7742200
       32700.000        48.159500        2.7604800
       32800.000        48.178200        2.7467400
       32900.000        48.196400        2.7329900
       33000.000        48.214000        2.7192500
       33100.000        48.231200        2.7062800
       33200.000        48.248100        2.6933000
       33400.000        48.280800        2.6673600
       33600.000        48.312100        2.6422100
       33800.000        48.342100        2.6170600
       33950.000        48.363700        2.5989100
       34100.000        48.384800        2.5807600
       34300.000        48.411700        2.5565700
       34500.000        48.437600        2.5323700
       34700.000        48.462500        2.5092900
       34900.000        48.486500        2.4862000
       35000.000        48.498200        2.4746600
       35100.000        48.509800        2.4631200
       35200.000        48.520900        2.4515800
       35300.000        48.531900        2.4400400
       35500.000        48.553000        2.4179400
       35700.000        48.573400        2.3958400
       35900.000        48.592900        2.3737400
       36030.000        48.605200        2.3593700
       36160.000        48.617200        2.3456200
       36300.000        48.629900        2.3308200
       36400.000        48.638700        2.3202400
       36500.000        48.647500        2.3096700
       36650.000        48.660300        2.2940900
       36800.000        48.672700        2.2785100
       36900.000        48.680700        2.2681200
       37000.000        48.688500        2.2577300
       37150.000        48.700100        2.2427000
       37300.000        48.711200        2.2276700
       37400.000        48.718500        2.2176500
       37500.000        48.725700        2.2076300
       37650.000        48.736200        2.1931300
       37800.000        48.746400        2.1786300
       37900.000        48.753100        2.1689600
       38000.000        48.759700        2.1592900
       38150.000        48.769400        2.1451200
       38300.000        48.778800        2.1309500
       38400.000        48.784900        2.1215000
       38500.000        48.790900        2.1120500
       38800.000        48.808100        2.0846800
       39000.000        48.819200        2.0664400
       39300.000        48.835100        2.0397600
       39500.000        48.845100        2.0219800
       39800.000        48.859400        1.9962000
       40000.000        48.868300        1.9790200
       40400.000        48.885500        1.9466400
       40800.000        48.901900        1.9142600
       41100.000        48.913600        1.8911400
       41500.000        48.928600        1.8603200
       41700.000        48.935900        1.8452700
       41900.000        48.942800        1.8302100
       42100.000        48.949400        1.8151600
       42300.000        48.955800        1.8001100
       42600.000        48.964900        1.7786000
       43000.000        48.976500        1.7499100
       43400.000        48.987300        1.7222200
       43800.000        48.997200        1.6945300
       44100.000        49.004200        1.6747000
       44500.000        49.012800        1.6482600
       44900.000        49.020800        1.6230800
       45300.000        49.028200        1.5978900
       45600.000        49.033500        1.5799200
       46000.000        49.040100        1.5559500
       46500.000        49.047800        1.5270400
       47000.000        49.054800        1.4989700
       47500.000        49.061200        1.4717100
       48000.000        49.067100        1.4452200
       48500.000        49.072500        1.4195500
       49000.000        49.077500        1.3946000
       49500.000        49.082100        1.3703300
       50000.000        49.086500        1.3467200
       50500.000        49.090400        1.3237300
       51000.000        49.093900        1.3007300
       51500.000        49.097000        1.2789400
       52000.000        49.099800        1.2571500
       53000.000        49.104700        1.2158300
       54000.000        49.108500        1.1760500
       55000.000        49.111200        1.1382600
       56000.000        49.112900        1.1021800
       56800.000        49.113700        1.0745800
       57530.000        49.114100        1.0503200
       58000.000        49.114100        1.0351500
       58500.000        49.114100        1.0194100
       59540.000        49.113600       0.98782600
       59800.000        49.113300       0.98016900
       60000.000        49.113200       0.97434200
       60800.000        49.112300       0.95153300
       61500.000        49.111500       0.93224900
       62300.000        49.110200       0.91089200
       63000.000        49.109100       0.89274400
       64000.000        49.107100       0.86777800
       65000.000        49.105000       0.84388000
       65900.000        49.102800       0.82298600
       66830.000        49.100500       0.80222600
       67400.000        49.098900       0.78990000
       68000.000        49.097200       0.77723900
       69000.000        49.094100       0.75673400
       70000.000        49.091000       0.73705300
       71000.000        49.087700       0.71811800
       72000.000        49.084400       0.69992400
       72800.000        49.081600       0.68587600
       73500.000        49.079100       0.67393900
       74200.000        49.076700       0.66231900
       74960.000        49.074000       0.65005100
       75500.000        49.072100       0.64151900
       76000.000        49.070300       0.63377200
       77110.000        49.066300       0.61707900
       78600.000        49.060900       0.59571700
       79300.000        49.058400       0.58607200
       80000.000        49.055800       0.57666700
       81500.000        49.050400       0.55711600
       83000.000        49.045000       0.53856700
       84000.000        49.041300       0.52672400
       85000.000        49.037700       0.51527700
       86500.000        49.032400       0.49876300
       88000.000        49.027100       0.48304900
       89000.000        49.023500       0.47299200
       90000.000        49.020000       0.46325300
       91500.000        49.014900       0.44918300
       93000.000        49.009900       0.43575900
       94000.000        49.006500       0.42714900
       95000.000        49.003100       0.41879700
       96500.000        48.998200       0.40667700
       98000.000        48.993400       0.39508700
       99000.000        48.990200       0.38764000
       99500.000        48.988700       0.38399600
       100000.00        48.987100       0.38040500
