;  Atomic scattering factors for Ir.
;   
;  Concatenation of data from CXRO <http://www-cxro.lbl.gov>
;  and LLNL <http://www-phys.llnl.gov/V_Div/scattering/asf.html>
;  
;  E (eV) f1 f2
;---------------
       10.000000       -9999.0000        2.2275300
       10.161700       -9999.0000        2.3068300
       10.326100       -9999.0000        2.3889500
       10.493100       -9999.0000        2.4740000
       10.662800       -9999.0000        2.5620700
       10.835300       -9999.0000        2.6541700
       11.010600       -9999.0000        2.7500300
       11.188600       -9999.0000        2.8493500
       11.369600       -9999.0000        2.9478100
       11.553500       -9999.0000        3.0118000
       11.740400       -9999.0000        3.0771700
       11.930300       -9999.0000        3.1439700
       12.123200       -9999.0000        3.2122100
       12.319300       -9999.0000        3.2620500
       12.518600       -9999.0000        3.3043900
       12.721000       -9999.0000        3.3472900
       12.926800       -9999.0000        3.3907400
       13.135900       -9999.0000        3.4347600
       13.348300       -9999.0000        3.4769600
       13.564200       -9999.0000        3.5196200
       13.783600       -9999.0000        3.5628100
       14.006600       -9999.0000        3.6149600
       14.233100       -9999.0000        3.7006900
       14.463300       -9999.0000        3.7884600
       14.697300       -9999.0000        3.8783100
       14.935000       -9999.0000        3.9702900
       15.176500       -9999.0000        4.0717200
       15.422000       -9999.0000        4.1956000
       15.671400       -9999.0000        4.3232500
       15.924900       -9999.0000        4.4547800
       16.182500       -9999.0000        4.6071100
       16.444200       -9999.0000        4.7733100
       16.710200       -9999.0000        4.9455000
       16.980500       -9999.0000        5.1239100
       17.255100       -9999.0000        5.3087500
       17.534200       -9999.0000        5.5060200
       17.817800       -9999.0000        5.7426900
       18.106000       -9999.0000        5.9895400
       18.398900       -9999.0000        6.2469900
       18.696400       -9999.0000        6.5155200
       18.998800       -9999.0000        6.7480000
       19.306100       -9999.0000        6.9756100
       19.618400       -9999.0000        7.2109100
       19.935700       -9999.0000        7.4541400
       20.258200       -9999.0000        7.6849600
       20.585800       -9999.0000        7.8905700
       20.918800       -9999.0000        8.1016800
       21.257100       -9999.0000        8.3184400
       21.600900       -9999.0000        8.5253400
       21.950300       -9999.0000        8.6850600
       22.305300       -9999.0000        8.8477700
       22.666100       -9999.0000        9.0135300
       23.032700       -9999.0000        9.1824000
       23.405300       -9999.0000        9.2620100
       23.783800       -9999.0000        9.3287200
       24.168500       -9999.0000        9.3959100
       24.559400       -9999.0000        9.4636000
       24.956600       -9999.0000        9.5294800
       25.360300       -9999.0000        9.5909100
       25.770500       -9999.0000        9.6527200
       26.187300       -9999.0000        9.7149400
       26.610900       -9999.0000        9.7775500
       27.041300       -9999.0000        9.7980100
       27.478600       -9999.0000        9.7597600
       27.923100       -9999.0000        9.7216500
       28.374700       -9999.0000        9.6836900
       28.833700       -9999.0000        9.6458700
       29.300000        6.7233400        9.6082100
       29.773900        6.9907200        9.5526500
       30.255500        7.2435200        9.4138500
       30.744900        7.4518000        9.2770700
       31.242100        7.6444400        9.1422800
       31.747500        7.8407700        9.0094500
       32.260900        8.0684600        8.8305700
       32.782700        8.2369200        8.5424700
       33.313000        8.3008700        8.2637600
       33.851800        8.2929500        7.9941500
       34.399300        8.2092100        7.8168200
       34.955700        8.1614000        7.6742100
       35.521100        8.1037300        7.5341900
       36.095600        8.0144600        7.3967300
       36.679400        7.8748800        7.3263700
       37.272700        7.7765500        7.3034800
       37.875500        7.6966900        7.2806700
       38.488200        7.6169700        7.2579100
       39.110700        7.5222300        7.2352400
       39.743200        7.4024200        7.2201800
       40.386100        7.2809800        7.2738400
       41.039300        7.1844200        7.3279100
       41.703100        7.0919300        7.3823800
       42.377600        6.9955000        7.4372500
       43.063000        6.8813200        7.4925300
       43.759500        6.7412700        7.5712600
       44.467300        6.6065300        7.6654300
       45.186500        6.4529500        7.7607700
       45.917400        6.2526300        7.8572900
       46.660000        5.9789300        7.9869400
       47.414700        5.4897500        8.1377500
       48.181600        4.6640100        8.8238500
       48.960900        4.5553400        10.072200
       49.752800        5.1508900        11.547100
       50.557600        6.1317900        11.638400
       51.375300        6.6639700        11.730400
       52.206200        7.0590400        11.823200
       53.050600        7.3875900        11.916700
       53.908700        7.6754100        12.010900
       54.780600        7.9345800        12.105900
       55.666700        8.1706100        12.201600
       56.567000        8.3844900        12.298000
       57.482000        8.5716000        12.395300
       58.411700        8.7129500        12.493300
       59.356400        8.7501900        12.656400
       60.316500        8.8478900        13.020500
       61.292100        9.0312600        13.395000
       62.283400        9.2340500        13.820800
       63.290800        9.5853800        14.414600
       64.314500        10.168500        15.034000
       65.354700        11.086000        15.453700
       66.411800        11.954100        15.697700
       67.485900        13.030900        15.890400
       68.577500        14.067300        15.522400
       69.686700        14.927800        15.162800
       70.813800        15.842600        14.626400
       71.959100        16.436000        13.896800
       73.123000        16.834300        13.203600
       74.305700        17.109600        12.545000
       75.507600        17.294800        11.946700
       76.728900        17.422000        11.380000
       77.969900        17.491800        10.840200
       79.231000        17.503900        10.325900
       80.512500        17.450900        9.8361100
       81.814700        17.293900        9.3883100
       83.138000        17.143200        9.1333500
       84.482700        17.046200        8.8853200
       85.849100        16.967300        8.6440400
       87.237700        16.888600        8.4092900
       88.648700        16.804200        8.1809200
       90.082500        16.706000        7.9587500
       91.539500        16.577200        7.7426300
       93.020100        16.445600        7.5976200
       94.524600        16.338600        7.4595700
       96.053500        16.238900        7.3240200
       97.607100        16.140700        7.1909300
       99.185800        16.041000        7.0602600
       100.79000        15.938200        6.9319700
       102.42000        15.833200        6.8044600
       104.07700        15.716500        6.6695100
       105.76000        15.584200        6.5372400
       107.47100        15.434600        6.4075800
       109.20900        15.260300        6.2805100
       110.97500        15.036600        6.1848600
       112.77000        14.831600        6.1275500
       114.59400        14.629500        6.0707600
       116.44800        14.406100        6.0145100
       118.33100        14.109300        5.9974000
       120.24500        13.857300        6.0580900
       122.19000        13.635800        6.1193900
       124.16600        13.414200        6.1813000
       126.17500        13.165100        6.2438500
       128.21500        12.904100        6.3794800
       130.28900        12.685100        6.5441200
       132.39700        12.487800        6.7130100
       134.53800        12.301800        6.8862600
       136.71400        12.121600        7.0639800
       138.92500        11.939900        7.2462900
       141.17200        11.734500        7.4504300
       143.45600        11.558200        7.7021000
       145.77600        11.405000        7.9622700
       148.13400        11.267900        8.2312300
       150.53000        11.144900        8.5092700
       152.96400        11.037600        8.7957100
       155.43900        10.941200        9.0873300
       157.95300        10.855400        9.3886200
       160.50700        10.782700        9.6999000
       163.10300        10.724800        10.021500
       165.74200        10.685600        10.353800
       168.42200        10.697800        10.688700
       171.14600        10.703500        10.970700
       173.91500        10.690000        11.260200
       176.72700        10.672600        11.557300
       179.58600        10.652000        11.862200
       182.49100        10.622100        12.175200
       185.44200        10.581200        12.530000
       188.44200        10.569900        12.919300
       191.48900        10.594700        13.320800
       194.58700        10.655900        13.719900
       197.73400        10.718900        14.102500
       200.93200        10.787400        14.495700
       204.18200        10.867400        14.899900
       207.48500        10.962800        15.315400
       210.84000        11.076600        15.742500
       214.25100        11.212900        16.181500
       217.71600        11.390400        16.632800
       221.23700        11.607500        17.058200
       224.81600        11.819200        17.458100
       228.45200        12.035400        17.867400
       232.14700        12.267100        18.286300
       235.90200        12.522600        18.715000
       239.71700        12.811100        19.153800
       243.59500        13.147200        19.602900
       247.53500        13.629300        19.996200
       251.53800        14.063200        20.229900
       255.60700        14.412400        20.466400
       259.74100        14.745300        20.705700
       263.94200        15.068300        20.947700
       268.21100        15.387100        21.192500
       272.54900        15.712000        21.437100
       276.95700        16.033800        21.673200
       281.43700        16.352200        21.911800
       285.98900        16.678000        22.153000
       290.61500        17.021200        22.377600
       295.31500        17.351100        22.576600
       300.09200        17.660300        22.777400
       304.94500        17.960600        22.980000
       309.87800        18.249600        23.184400
       314.89000        18.508700        23.390600
       319.98300        18.773100        23.665400
       325.15800        19.066400        23.950900
       330.41800        19.383700        24.240000
       335.76200        19.718500        24.532500
       341.19200        20.071300        24.828500
       346.71100        20.444700        25.128100
       352.31900        20.844100        25.431300
       358.01700        21.294600        25.738200
       363.80800        21.769100        25.967100
       369.69200        22.223000        26.169500
       375.67200        22.657800        26.373500
       381.74800        23.092900        26.579000
       387.92200        23.532100        26.786200
       394.19700        23.978900        26.995000
       400.57300        24.436700        27.205300
       407.05200        24.910200        27.417400
       413.63500        25.406700        27.631100
       420.32600        25.949000        27.846400
       427.12400        26.544800        27.986100
       434.03200        27.110500        28.044900
       441.05200        27.619300        28.103800
       448.18600        28.115500        28.162800
       455.43500        28.602500        28.221900
       462.80200        29.083800        28.281100
       470.28700        29.562200        28.340500
       477.89400        30.039700        28.400000
       485.62300        30.518300        28.459600
       493.47800        30.999600        28.519300
       501.45900        31.485500        28.579200
       509.57000        31.978200        28.639200
       517.81200        32.480100        28.699400
       526.18700        32.994700        28.759600
       534.69800        33.526700        28.820000
       543.34600        34.082700        28.880500
       552.13400        34.704200        28.941100
       561.06500        35.398300        28.945700
       570.13900        36.069200        28.750700
       579.36100        36.636500        28.557000
       588.73200        37.161300        28.364500
       598.25400        37.657400        28.173400
       607.93000        38.131400        27.983500
       617.76300        38.587600        27.795000
       627.75500        39.028600        27.607700
       637.90800        39.456800        27.421700
       648.22600        39.873700        27.236900
       658.71100        40.280700        27.053400
       669.36500        40.679100        26.871100
       680.19100        41.069600        26.690000
       691.19300        41.453400        26.510100
       702.37200        41.831300        26.331500
       713.73300        42.204100        26.154100
       725.27700        42.572700        25.977800
       737.00800        42.938000        25.802800
       748.92800        43.301000        25.628900
       761.04200        43.662700        25.456200
       773.35100        44.024500        25.284700
       785.85900        44.388100        25.114300
       798.57000        44.755500        24.945100
       811.48600        45.130000        24.777000
       824.61100        45.516200        24.610000
       837.94900        45.921700        24.444200
       851.50200        46.352500        24.279500
       865.27400        47.037400        24.115900
       879.26900        47.729900        23.176000
       893.49100        47.650200        22.891700
       907.94300        47.837700        22.610400
       922.62800        48.069900        22.332300
       937.55100        48.314500        22.030700
       952.71500        48.545200        21.726100
       968.12400        48.764100        21.419500
       983.78300        48.972600        21.116800
       999.69500        49.174400        20.815600
       1015.8600        49.372500        20.515800
       1032.2900        49.561700        20.195900
       1048.9900        49.726900        19.877500
       1065.9600        49.875000        19.560500
       1083.2000        50.007400        19.248200
       1100.7200        50.126100        18.940400
       1118.5200        50.231800        18.637200
       1136.6100        50.325400        18.338800
       1155.0000        50.407700        18.044800
       1173.6800        50.478500        17.755000
       1192.6600        50.538400        17.469700
       1211.9500        50.588000        17.188600
       1231.5500        50.628300        16.911500
       1251.4700        50.659300        16.634500
       1271.7200        50.679300        16.357200
       1292.2900        50.682600        16.078600
       1313.1900        50.669200        15.804100
       1334.4300        50.640500        15.534100
       1356.0100        50.596800        15.268500
       1377.9400        50.537900        15.007000
       1400.2300        50.463200        14.749700
       1422.8800        50.372100        14.496700
       1445.8900        50.264400        14.247600
       1469.2800        50.139200        14.001600
       1493.0400        49.994800        13.758400
       1517.1900        49.828800        13.514200
       1541.7300        49.635400        13.273700
       1566.6700        49.414800        13.037500
       1592.0100        49.164700        12.804600
       1617.7600        48.881500        12.575700
       1643.9200        48.561400        12.350800
       1670.5100        48.199700        12.130000
       1697.5300        47.791000        11.912700
       1724.9900        47.327500        11.698600
       1752.8900        46.798200        11.480700
       1781.2400        46.182600        11.264200
       1810.0500        45.461700        11.049500
       1839.3200        44.608200        10.838400
       1869.0700        43.580900        10.631400
       1899.3000        42.315200        10.428600
       1930.0200        40.697700        10.229300
       1961.2400        38.503400        10.033600
       1992.9600        35.166500        9.8413400
       2025.2000        28.096400        9.6578400
       2040.3000      -0.66199900        9.5740300
       2040.5000      -0.66212100        27.330400
       2057.9500        27.920400        27.033200
       2091.2400        31.192600        26.482100
       2116.0000        12.321800        26.084900
       2116.2000        12.353100        38.446800
       2125.0600        30.742800        38.218300
       2159.4300        39.334900        37.353900
       2194.3600        43.421600        36.509300
       2229.8500        46.266900        35.683600
       2265.9200        48.451200        34.877400
       2302.5700        50.199800        34.088700
       2339.8100        51.623600        33.319500
       2377.6600        52.780600        32.567600
       2416.1100        53.690300        31.832600
       2455.1900        54.329400        31.115400
       2494.9000        54.572700        30.414800
       2535.2600        53.617700        29.730200
       2550.6000        46.371500        29.476800
       2550.8000        46.377600        34.227200
       2576.2600        55.343600        33.719800
       2617.9300        57.595800        32.915800
       2660.2700        59.008700        32.130900
       2703.3000        60.085400        31.367100
       2747.0300        60.947300        30.621700
       2791.4600        61.630200        29.894900
       2836.6100        62.118800        29.186100
       2882.4900        62.228000        28.495000
       2908.6000        59.436900        28.113800
       2908.8000        59.439600        29.886000
       2929.1100        62.699400        29.589600
       2976.4800        63.914400        28.917100
       3024.6300        64.681400        28.260900
       3073.5500        65.262100        27.621000
       3123.2600        65.662800        26.995800
       3173.6000        64.290900        26.386900
       3173.8000        64.292800        27.350200
       3225.1100        66.704000        26.773100
       3277.2700        67.382500        26.204800
       3330.2800        67.941400        25.644600
       3384.1500        68.434600        25.092700
       3438.8800        68.879700        24.548900
       3494.5000        69.286700        24.013900
       3551.0200        69.660400        23.486000
       3608.4600        70.005800        22.968100
       3666.8200        70.326000        22.457900
       3726.1300        70.622300        21.957200
       3786.4000        70.896700        21.463400
       3847.6400        71.151000        20.979500
       3909.8700        71.387200        20.504600
       3973.1100        71.606600        20.038200
       4037.3800        71.808800        19.579300
       4102.6800        71.996900        19.130800
       4169.0300        72.171100        18.689200
       4236.4600        72.331000        18.256200
       4304.9800        72.478100        17.831600
       4374.6200        72.613500        17.415500
       4445.3700        72.737400        17.007500
       4517.2700        72.850400        16.607700
       4590.3300        72.953300        16.216100
       4664.5800        73.046500        15.832200
       4740.0300        73.130400        15.456400
       4816.6900        73.205600        15.088500
       4894.6000        73.272500        14.728200
       4973.7700        73.331400        14.375400
       5054.2100        73.382900        14.030300
       5135.9600        73.427000        13.692600
       5219.0300        73.464400        13.362200
       5303.4400        73.495100        13.038900
       5389.2200        73.519600        12.722800
       5476.3900        73.538000        12.413700
       5564.9700        73.550700        12.111600
       5654.9800        73.558000        11.816200
       5746.4400        73.560100        11.527400
       5839.3900        73.557000        11.245200
       5933.8300        73.549100        10.969400
       6029.8100        73.536300        10.699900
       6127.3300        73.519100        10.436700
       6226.4400        73.497400        10.179600
       6327.1500        73.471400        9.9285200
       6429.4800        73.441300        9.6834500
       6533.4800        73.407100        9.4439500
       6639.1500        73.369000        9.2101800
       6746.5400        73.326900        8.9819600
       6855.6500        73.281000        8.7591800
       6966.5400        73.231000        8.5414600
       7079.2200        73.177200        8.3291500
       7193.7200        73.119400        8.1219500
       7310.0700        73.057700        7.9198900
       7428.3100        72.992000        7.7225600
       7548.4500        72.922200        7.5300900
       7670.5400        72.848100        7.3424100
       7794.6100        72.769700        7.1591200
       7920.6800        72.686600        6.9803200
       8048.7900        72.598600        6.8059900
       8178.9800        72.505200        6.6358200
       8311.2600        72.406300        6.4699900
       8445.6900        72.301100        6.3081700
       8582.2900        72.189600        6.1505500
       8721.1100        72.070500        5.9965500
       8862.1600        71.943300        5.8465900
       9005.5000        71.806700        5.7001800
       9151.1600        71.659700        5.5575500
       9299.1700        71.500300        5.4183900
       9449.5800        71.326700        5.2828000
       9602.4200        71.136100        5.1505000
       9757.7300        70.924800        5.0217100
       9915.5500        70.689500        4.8961100
       10075.900        70.420500        4.7704800
       10238.900        70.105900        4.6483500
       10404.500        69.730200        4.5296100
       10572.800        69.264100        4.4141800
       10743.800        68.650300        4.3020000
       10917.600        67.746900        4.1929600
       11094.200        65.980000        4.0870000
       11215.100        51.962700        4.0169100
       11215.300        51.963800        10.303000
       11273.600        64.665000        10.205200
       11455.900        67.513900        9.9083000
       11641.200        68.591800        9.6200800
       11829.500        69.196700        9.3402500
       12020.800        69.544200        9.0685600
       12215.300        69.694200        8.8047600
       12412.800        69.632900        8.5486600
       12613.600        69.213900        8.2999900
       12817.600        65.847200        8.0585700
       12824.000        61.566000        8.0512000
       12824.200        61.566300        11.279200
       13025.000        69.501700        11.004700
       13235.600        70.224300        10.728200
       13418.400        67.714400        10.497300
       13418.600        67.716100        11.901600
       13449.700        70.060500        11.861400
       13667.200        71.463800        11.586200
       13888.300        72.162900        11.315700
       14112.900        72.690600        11.049900
       14341.200        73.123700        10.788900
       14573.100        73.492900        10.532600
       14808.900        73.814300        10.281000
       15048.400        74.098200        10.034200
       15291.800        74.351200        9.7921700
       15539.100        74.578300        9.5548200
       15790.400        74.783200        9.3221500
       16045.800        74.968700        9.0941600
       16305.400        75.137200        8.8708000
       16569.100        75.290500        8.6520300
       16837.100        75.430300        8.4378200
       17109.400        75.557700        8.2281200
       17386.100        75.674000        8.0228900
       17667.400        75.780200        7.8220700
       17953.100        75.877100        7.6256100
       18243.500        75.965400        7.4334600
       18538.600        76.045900        7.2455700
       18838.400        76.119200        7.0618600
       19143.100        76.185800        6.8822900
       19452.700        76.246200        6.7067900
       19767.400        76.300800        6.5353000
       20087.100        76.350000        6.3677500
       20412.000        76.394300        6.2040800
       20742.100        76.433900        6.0442300
       21077.600        76.469200        5.8881300
       21418.500        76.500500        5.7357100
       21765.000        76.528000        5.5869100
       22117.000        76.551900        5.4416700
       22474.700        76.572600        5.2999100
       22838.200        76.590200        5.1615600
       23207.600        76.604900        5.0265800
       23583.000        76.617000        4.8948700
       23964.400        76.626500        4.7663900
       24352.000        76.633700        4.6410700
       24745.900        76.638600        4.5188400
       25146.200        76.641500        4.3996300
       25552.900        76.642500        4.2834000
       25966.200        76.641700        4.1700600
       26386.100        76.639100        4.0595600
       26812.900        76.635000        3.9518400
       27246.600        76.629500        3.8468300
       27687.300        76.622600        3.7444800
       28135.100        76.614400        3.6447300
       28590.200        76.605100        3.5475100
       29052.600        76.595300        3.4527800
       29522.500        76.593500        3.3604700
       30000.000        76.542600        3.2705300
       30400.000        76.486600        3.2260900
       30800.000        76.475200        3.1551500
       31200.000        76.463500        3.0866600
       31500.000        76.454400        3.0368200
       31900.000        76.441900        2.9723300
       32300.000        76.429400        2.9100000
       32600.000        76.419900        2.8645900
       33000.000        76.407100        2.8057800
       33400.000        76.394000        2.7483400
       33800.000        76.380800        2.6927400
       34100.000        76.370600        2.6522000
       34500.000        76.356900        2.5996300
       34900.000        76.343100        2.5486900
       35300.000        76.329300        2.4991500
       35700.000        76.315200        2.4510600
       36030.000        76.303500        2.4124800
       36500.000        76.286700        2.3591600
       37000.000        76.268800        2.3044600
       37500.000        76.250800        2.2517300
       38000.000        76.232700        2.2008800
       38500.000        76.214700        2.1517700
       39000.000        76.196700        2.1043600
       39500.000        76.178600        2.0585800
       40000.000        76.160600        2.0143500
       40500.000        76.142500        1.9713000
       41000.000        76.124500        1.9296900
       41500.000        76.106400        1.8894400
       42000.000        76.088300        1.8505000
       42700.000        76.063000        1.7980700
       43400.000        76.037600        1.7479400
       44100.000        76.012300        1.6999800
       44877.000        75.984200        1.6491200
       45100.000        75.976100        1.6349400
       45400.000        75.965300        1.6161200
       45700.000        75.954500        1.5976400
       46000.000        75.943700        1.5794800
       46500.000        75.925600        1.5499400
       47000.000        75.907400        1.5212600
       47500.000        75.889300        1.4934000
       48000.000        75.871200        1.4663400
       48500.000        75.853000        1.4400400
       49000.000        75.834800        1.4144800
       49500.000        75.816600        1.3896200
       50000.000        75.798400        1.3654400
       51000.000        75.761700        1.3185700
       52000.000        75.724300        1.2741800
       53000.000        75.686400        1.2320900
       54000.000        75.647900        1.1921300
       55000.000        75.608700        1.1541700
       56000.000        75.568500        1.1179900
       56800.000        75.535600        1.0903000
       57530.000        75.505000        1.0659700
       58000.000        75.484800        1.0507400
       58500.000        75.463100        1.0349200
       59540.000        75.416500        1.0031800
       59800.000        75.404500       0.99548500
       60000.000        75.395300       0.98962700
       60800.000        75.357400       0.96662400
       61500.000        75.322800       0.94717500
       62300.000        75.281800       0.92568700
       62600.000        75.265900       0.91789400
       63000.000        75.244300       0.90750300
       63500.000        75.216500       0.89499100
       64000.000        75.187800       0.88247800
       64500.000        75.158000       0.87049700
       65000.000        75.127000       0.85851600
       65500.000        75.094800       0.84701200
       65900.000        75.068100       0.83780800
       66400.000        75.033200       0.82673800
       66830.000        75.001900       0.81721800
       67100.000        74.981500       0.81142400
       67400.000        74.958200       0.80498700
       67700.000        74.934100       0.79870300
       68000.000        74.909200       0.79241900
       68500.000        74.865600       0.78228000
       68800.000        74.838000       0.77619700
       69000.000        74.819100       0.77214200
       69300.000        74.789600       0.76629900
       69500.000        74.769300       0.76240400
       69800.000        74.737600       0.75656000
       70000.000        74.715700       0.75266500
       70300.000        74.681300       0.74703200
       70500.000        74.657500       0.74327700
       70800.000        74.620000       0.73764300
       71000.000        74.593900       0.73388800
       71300.000        74.552700       0.72847100
       71500.000        74.523800       0.72486000
       71800.000        74.478000       0.71944300
       72000.000        74.445700       0.71583200
       72200.000        74.411800       0.71234400
       72400.000        74.376100       0.70885700
       72600.000        74.338400       0.70537000
       72800.000        74.298600       0.70188200
       73000.000        74.256400       0.69849300
       73200.000        74.211300       0.69510400
       73350.000        74.175600       0.69256200
       73500.000        74.137900       0.69002000
       73700.000        74.084200       0.68672000
       73900.000        74.026000       0.68341900
       74050.000        73.979000       0.68094400
       74130.000        73.952600       0.67962400
       74200.000        73.928700       0.67846900
       74300.000        73.893100       0.67686300
       74400.000        73.855500       0.67525800
       74500.000        73.815900       0.67365200
       74600.000        73.774000       0.67204600
       74700.000        73.729400       0.67044100
       74800.000        73.682000       0.66883500
       74880.000        73.641700       0.66755100
       74960.000        73.599000       0.66626600
       74990.000        73.582300       0.66579400
       75030.000        73.559400       0.66516500
       75100.000        73.517700       0.66406300
       75150.000        73.486300       0.66327700
       75200.000        73.453600       0.66249000
       75250.000        73.419300       0.66170400
       75300.000        73.383300       0.66091700
       75350.000        73.345600       0.66014100
       75400.000        73.305800       0.65936500
       75450.000        73.263700       0.65858900
       75500.000        73.219200       0.65781400
       75550.000        73.171900       0.65703800
       75600.000        73.121400       0.65626200
       75650.000        73.067200       0.65548600
       75700.000        73.008900       0.65471000
       75740.000        72.958800       0.65410100
       75780.000        72.905200       0.65349200
       75810.000        72.862400       0.65303500
       75850.000        72.801300       0.65242600
       75880.000        72.752100       0.65197000
       75920.000        72.681100       0.65136100
       75940.000        72.643100       0.65105600
       75960.000        72.603000       0.65075200
       75980.000        72.560800       0.65044700
       76000.000        72.516100       0.65014300
       76020.000        72.468800       0.64983800
       76050.000        72.391900       0.64938200
       76070.000        72.336000       0.64907700
       76085.000        72.291400       0.64884900
       76100.000        72.244100       0.64862000
       76115.000        72.193700       0.64839200
       76130.000        72.140000       0.64816400
       76140.000        72.101900       0.64801200
       76150.000        72.062000       0.64785900
       76165.000        71.998100       0.64763100
       76180.000        71.928600       0.64740300
       76190.000        71.878600       0.64725000
       76200.000        71.825200       0.64709800
       76210.000        71.768000       0.64694600
       76220.000        71.706400       0.64679400
       76230.000        71.639700       0.64664100
       76240.000        71.566900       0.64648900
       76248.000        71.503500       0.64636700
       76255.000        71.443600       0.64626100
       76263.000        71.369300       0.64613900
       76270.000        71.298100       0.64603200
       76275.000        71.243000       0.64595600
       76280.000        71.184000       0.64588000
       76285.000        71.120400       0.64580400
       76290.000        71.051400       0.64572800
       76295.000        70.975900       0.64565200
       76300.000        70.893000       0.64557600
       76305.000        70.800700       0.64550000
       76310.000        70.696800       0.64542300
       76313.000        70.627500       0.64537800
       76315.000        70.577900       0.64534700
       76318.000        70.497600       0.64530200
       76320.000        70.439300       0.64527100
       76323.000        70.343900       0.64522600
       76325.000        70.273800       0.64519500
       76328.000        70.156500       0.64514900
       76330.000        70.068500       0.64511900
       76332.000        69.970600       0.64508900
       76334.000        69.860000       0.64505800
       76336.000        69.734100       0.64502800
       76337.000        69.664200       0.64501200
       76338.000        69.587500       0.64499700
       76339.000        69.504600       0.64498200
       76340.000        69.412300       0.64496700
       76341.000        69.310400       0.64495200
       76342.000        69.193900       0.64493600
       76343.000        69.060400       0.64492100
       76344.000        68.898400       0.64490600
       76344.800        68.736800       0.64489400
       76345.500        68.540800       0.64488300
       76345.600        68.529500       0.69498400
       76345.700        68.531100       0.74508500
       76345.900        68.527600       0.84528700
       76346.300        68.518500        1.0456900
       76347.100        68.486200        1.4465000
       76348.600        68.323400       0.64483700
       76349.900        67.681500       0.64481700
       76351.100        66.803700       0.64479900
       76352.400        65.442500        1.1327700
       76353.600        63.643200        2.1213500
       76354.400        65.592900        3.1487300
       76355.200        67.776500        14.812300
       76356.200        70.670600        3.3130500
       76356.500        71.534200        3.3130700
       76356.700        72.069300        3.3131000
       76357.800        71.154600        4.8092300
       76359.300        71.113100        3.3043700
       76360.100        70.847500        3.2984600
       76361.000        70.697300        3.2918100
       76362.000        70.612400        3.2844200
       76363.000        70.571800        3.2770300
       76364.000        70.553800        3.2685500
       76365.000        70.550800        3.2600800
       76366.000        70.555300        3.2516000
       76367.000        70.566400        3.2431200
       76368.000        70.580100        3.2355200
       76369.000        70.596600        3.2279100
       76370.000        70.613500        3.2203000
       76371.000        70.631900        3.2127000
       76373.000        70.669400        3.1999900
       76375.000        70.705900        3.1873300
       76377.000        70.741400        3.1786800
       76379.000        70.775900        3.1700900
       76380.500        70.800000        3.1655300
       76382.000        70.823700        3.1609700
       76384.000        70.854600        3.1568700
       76386.000        70.883500        3.1527800
       76388.000        70.912000        3.1508800
       76390.000        70.939200        3.1489900
       76395.000        71.004000        3.1500500
       76400.000        71.065600        3.1546300
       76405.000        71.125100        3.1612800
       76410.000        71.182800        3.1689400
       76415.000        71.239400        3.1761500
       76420.000        71.294300        3.1833500
       76425.000        71.347300        3.1881100
       76430.000        71.398900        3.1928700
       76435.000        71.448200        3.1949100
       76440.000        71.495200        3.1969500
       76445.000        71.540200        3.1969000
       76450.000        71.582400        3.1968500
       76455.000        71.622400        3.1951700
       76460.000        71.659900        3.1935000
       76470.000        71.729000        3.1900800
       76478.000        71.779100        3.1880500
       76485.000        71.819200        3.1862800
       76493.000        71.863700        3.1857700
       76500.000        71.900800        3.1853300
       76510.000        71.950400        3.1856700
       76520.000        71.997300        3.1860100
       76535.000        72.065000        3.1872500
       76550.000        72.129200        3.1885000
       76560.000        72.169300        3.1884700
       76570.000        72.208100        3.1884500
       76585.000        72.262800        3.1863800
       76600.000        72.312900        3.1843100
       76615.000        72.359900        3.1835300
       76630.000        72.404600        3.1827400
       76650.000        72.461000        3.1816900
       76680.000        72.539200        3.1801300
       76700.000        72.587800        3.1790800
       76730.000        72.655800        3.1772000
       76750.000        72.698900        3.1759500
       76770.000        72.739400        3.1747000
       76800.000        72.796300        3.1728200
       76820.000        72.832700        3.1713300
       76850.000        72.884200        3.1690900
       76880.000        72.932800        3.1668500
       76900.000        72.963700        3.1653600
       76920.000        72.993500        3.1639900
       76950.000        73.036200        3.1619300
       76980.000        73.076900        3.1598700
       77010.000        73.115500        3.1578100
       77030.000        73.140300        3.1564300
       77060.000        73.178000        3.1543700
       77080.000        73.199500        3.1530000
       77110.000        73.233200        3.1509400
       77160.000        73.286500        3.1478200
       77210.000        73.336300        3.1446900
       77260.000        73.383700        3.1415700
       77300.000        73.420100        3.1390700
       77350.000        73.463700        3.1359400
       77400.000        73.505700        3.1328200
       77450.000        73.545800        3.1296900
       77500.000        73.584100        3.1265700
       77550.000        73.621000        3.1234400
       77600.000        73.656600        3.1203200
       77700.000        73.723700        3.1140700
       77800.000        73.785500        3.1078200
       77900.000        73.842800        3.1015700
       78000.000        73.895600        3.0956200
       78100.000        73.945000        3.0896800
       78200.000        73.992200        3.0837300
       78300.000        74.036900        3.0777800
       78380.000        74.071100        3.0730200
       78450.000        74.100000        3.0688600
       78600.000        74.159200        3.0599400
       78700.000        74.196900        3.0549200
       78800.000        74.233300        3.0499000
       78900.000        74.268500        3.0448900
       79000.000        74.302800        3.0398700
       79150.000        74.352100        3.0312800
       79300.000        74.398700        3.0226900
       79500.000        74.457700        3.0104800
       79700.000        74.513100        2.9982700
       79850.000        74.551800        2.9885700
       79920.000        74.569100        2.9840400
       80000.000        74.588300        2.9788600
       80200.000        74.634700        2.9674000
       80400.000        74.679000        2.9559400
       80600.000        74.721200        2.9444800
       80800.000        74.761500        2.9330100
       81000.000        74.800000        2.9215500
       81200.000        74.836900        2.9100900
       81350.000        74.863500        2.9015000
       81500.000        74.889300        2.8929000
       81700.000        74.922600        2.8819700
       81900.000        74.954500        2.8710400
       82100.000        74.985300        2.8601100
       82300.000        75.015000        2.8491800
       82500.000        75.043600        2.8382500
       82700.000        75.071300        2.8273200
       82850.000        75.091400        2.8191200
       83000.000        75.110900        2.8109200
       83300.000        75.148700        2.7956200
       83500.000        75.173100        2.7854200
       83800.000        75.208500        2.7701200
       84000.000        75.231400        2.7599200
       84300.000        75.264600        2.7448500
       84500.000        75.286000        2.7348000
       84800.000        75.317100        2.7197300
       85000.000        75.337400        2.7096800
       85200.000        75.357200        2.6995900
       85400.000        75.376300        2.6895100
       85600.000        75.394900        2.6794200
       85800.000        75.413000        2.6693400
       86200.000        75.448000        2.6491700
       86500.000        75.473400        2.6340400
       86900.000        75.505800        2.6140200
       87300.000        75.536300        2.5940100
       87700.000        75.565200        2.5739900
       88000.000        75.585900        2.5589800
       88300.000        75.605900        2.5447800
       88500.000        75.619000        2.5353100
       88800.000        75.638000        2.5211200
       89000.000        75.650400        2.5116500
       89300.000        75.668400        2.4978700
       89500.000        75.680100        2.4886700
       89800.000        75.697200        2.4748900
       90000.000        75.708200        2.4657000
       90400.000        75.729700        2.4482900
       90800.000        75.750600        2.4308800
       91200.000        75.770600        2.4134700
       91500.000        75.785200        2.4004100
       91900.000        75.804100        2.3837300
       92300.000        75.822300        2.3670600
       92700.000        75.839800        2.3503800
       93000.000        75.852500        2.3378700
       93300.000        75.864800        2.3259600
       93500.000        75.873000        2.3180200
       94000.000        75.892700        2.2981700
       94500.000        75.911700        2.2788600
       94800.000        75.922700        2.2672800
       95000.000        75.929900        2.2595600
       95400.000        75.944000        2.2447200
       95800.000        75.957800        2.2298900
       96200.000        75.971100        2.2150500
       96500.000        75.980900        2.2039200
       96900.000        75.993600        2.1896700
       97300.000        76.005900        2.1754200
       97700.000        76.017900        2.1611700
       98000.000        76.026700        2.1504800
       98500.000        76.041000        2.1331900
       99000.000        76.054800        2.1158900
       99500.000        76.068200        2.0990400
       99800.000        76.076000        2.0889300
       100000.00        76.081200        2.0821900
