;  Atomic scattering factors for Kr.
;   
;  Concatenation of data from CXRO <http://www-cxro.lbl.gov>
;  and LLNL <http://www-phys.llnl.gov/V_Div/scattering/asf.html>
;  
;  E (eV) f1 f2
;---------------
       10.000000       -9999.0000    1.9915300e-15
       10.161700       -9999.0000    2.0237400e-15
       10.326100       -9999.0000    2.0564700e-15
       10.493100       -9999.0000    2.0897400e-15
       10.662800       -9999.0000    2.1235400e-15
       10.835300       -9999.0000    2.1578800e-15
       11.010600       -9999.0000    2.1927800e-15
       11.188600       -9999.0000    2.2282500e-15
       11.369600       -9999.0000    2.2642900e-15
       11.553500       -9999.0000    2.3009100e-15
       11.740400       -9999.0000    2.3381300e-15
       11.930300       -9999.0000    2.3759500e-15
       12.123200       -9999.0000    2.4143800e-15
       12.319300       -9999.0000    2.4534300e-15
       12.518600       -9999.0000    2.4931100e-15
       12.721000       -9999.0000    2.5334300e-15
       12.926800       -9999.0000    2.5744100e-15
       13.135900       -9999.0000    2.6160500e-15
       13.348300       -9999.0000    2.6583600e-15
       13.564200       -9999.0000    2.7013600e-15
       13.783600       -9999.0000    2.7450500e-15
       14.000000       -9999.0000    2.7881400e-15
       14.200000       -9999.0000        6.4038500
       14.233100       -9999.0000        6.4696700
       14.463300       -9999.0000        6.9418200
       14.697300       -9999.0000        7.4484400
       14.935000       -9999.0000        7.8939600
       15.176500       -9999.0000        8.3495200
       15.422000       -9999.0000        8.7984500
       15.671400       -9999.0000        9.1039800
       15.924900       -9999.0000        9.4201200
       16.182500       -9999.0000        9.7472500
       16.444200       -9999.0000        10.025400
       16.710200       -9999.0000        10.201200
       16.980500       -9999.0000        10.380100
       17.255100       -9999.0000        10.562100
       17.534200       -9999.0000        10.620600
       17.817800       -9999.0000        10.632700
       18.106000       -9999.0000        10.644800
       18.398900       -9999.0000        10.662400
       18.696400       -9999.0000        10.707300
       18.998800       -9999.0000        10.752500
       19.306100       -9999.0000        10.797900
       19.618400       -9999.0000        10.839800
       19.935700       -9999.0000        10.869100
       20.258200       -9999.0000        10.898400
       20.585800       -9999.0000        10.927700
       20.918800       -9999.0000        10.949600
       21.257100       -9999.0000        10.946700
       21.600900       -9999.0000        10.943900
       21.950300       -9999.0000        10.941000
       22.305300       -9999.0000        10.938200
       22.666100       -9999.0000        10.904900
       23.032700       -9999.0000        10.814900
       23.405300       -9999.0000        10.725700
       23.783800       -9999.0000        10.637200
       24.168500       -9999.0000        10.542000
       24.559400       -9999.0000        10.302400
       24.956600       -9999.0000        10.068300
       25.360300       -9999.0000        9.8394300
       25.770500       -9999.0000        9.6158100
       26.187300       -9999.0000        9.3972600
       26.610900       -9999.0000        9.1836800
       27.041300       -9999.0000        8.9749600
       27.478600       -9999.0000        8.7654200
       27.923100       -9999.0000        8.5392400
       28.374700       -9999.0000        8.3189100
       28.833700       -9999.0000        8.1042500
       29.300000        10.839400        7.7819600
       29.773900        11.026200        7.4178400
       30.255500        11.158800        7.0707400
       30.744900        11.257800        6.7399000
       31.242100        11.331700        6.4245300
       31.747500        11.386300        6.1239200
       32.260900        11.425500        5.8373700
       32.782700        11.452900        5.5642400
       33.313000        11.471400        5.3038900
       33.851800        11.488500        5.0557100
       34.399300        11.515200        4.8120900
       34.955700        11.521000        4.5337800
       35.521100        11.495100        4.2715600
       36.095600        11.452800        4.0245100
       36.679400        11.398600        3.7917400
       37.272700        11.335400        3.5724400
       37.875500        11.264900        3.3658300
       38.488200        11.188700        3.1711600
       39.110700        11.107800        2.9877500
       39.743200        11.023400        2.8149500
       40.386100        10.936200        2.6521400
       41.039300        10.847400        2.4987500
       41.703100        10.759700        2.3542300
       42.377600        10.668900        2.2094600
       43.063000        10.572100        2.0733800
       43.759500        10.472100        1.9456900
       44.467300        10.370000        1.8258500
       45.186500        10.266200        1.7134000
       45.917400        10.161100        1.6078700
       46.660000        10.055000        1.5088400
       47.414700        9.9478500        1.4159200
       48.181600        9.8397500        1.3287100
       48.960900        9.7307100        1.2468800
       49.752800        9.6178600        1.1700800
       50.557600        9.5045400        1.1036800
       51.375300        9.3948800        1.0426800
       52.206200        9.2861700       0.98505600
       53.050600        9.1775400       0.93061500
       53.908700        9.0683000       0.87918200
       54.780600        8.9577600       0.83059300
       55.666700        8.8447500       0.78468700
       56.567000        8.7250200       0.74451200
       57.482000        8.6068000       0.71739500
       58.411700        8.4951100       0.69126700
       59.356400        8.3832700       0.66609100
       60.316500        8.2662100       0.64183100
       61.292100        8.1468400       0.62653600
       62.283400        8.0320600       0.61752400
       63.290800        7.9194600       0.60864100
       64.314500        7.8063200       0.59988500
       65.354700        7.6907200       0.59154000
       66.411800        7.5732500       0.58650600
       67.485900        7.4543000       0.58151500
       68.577500        7.3295200       0.57656600
       69.686700        7.2008300       0.57680900
       70.813800        7.0704700       0.57770200
       71.959100        6.9345400       0.57859600
       73.123000        6.7919100       0.58137300
       74.305700        6.6422600       0.58502200
       75.507600        6.4835200       0.58869400
       76.728900        6.3120700       0.59239000
       77.969900        6.1248600       0.59911300
       79.231000        5.9209800       0.60853800
       80.512500        5.6941700       0.61811100
       81.814700        5.4365900       0.63112500
       83.138000        5.1399100       0.64767800
       84.482700        4.7851200       0.66466500
       85.849100        4.3365600       0.68209700
       87.237700        3.7283300       0.70090100
       88.648700        2.7046900       0.72630700
       90.082500       0.28970500       0.92152100
       91.539500      -0.95757900        5.9665800
       93.020100        1.0581800        10.518700
       93.700000        8.5486500        13.605700
       93.900000        9.2865300        7.2326400
       94.524600        7.5569800        6.7154900
       96.053500        7.6477000        5.6118500
       97.607100        7.7976600        4.6895500
       99.185800        7.8621100        3.9188600
       100.79000        7.4594700        2.9089800
       102.42000        6.7934000        2.6298800
       104.07700        6.3900700        2.3775500
       105.76000        5.8244700        2.1494300
       107.47100        5.2176600        2.2902900
       109.20900        4.7743500        2.5072000
       110.97500        4.4172400        2.7446400
       112.77000        4.1006000        3.0045800
       114.59400        3.8145800        3.2891400
       116.44800        3.5572400        3.6006400
       118.33100        3.3385600        3.9416400
       120.24500        3.1529400        4.2898200
       122.19000        2.9823700        4.6540100
       124.16600        2.8366600        5.0491200
       126.17500        2.7662600        5.4777800
       128.21500        2.7391900        5.8518500
       130.28900        2.6910500        6.2178600
       132.39700        2.6529100        6.6067600
       134.53800        2.6384900        7.0199900
       136.71400        2.6706700        7.4590600
       138.92500        2.7884000        7.8730900
       141.17200        2.9098200        8.1967800
       143.45600        2.9810800        8.5337900
       145.77600        3.0602300        8.8846400
       148.13400        3.1510100        9.2499200
       150.53000        3.2606800        9.6302300
       152.96400        3.4377600        10.026200
       155.43900        3.6421200        10.345700
       157.95300        3.8071100        10.654900
       160.50700        3.9734200        10.973400
       163.10300        4.1486400        11.301400
       165.74200        4.3395200        11.639200
       168.42200        4.5917100        11.987100
       171.14600        4.8686900        12.258400
       173.91500        5.1026800        12.506300
       176.72700        5.3262600        12.759300
       179.58600        5.5476700        13.017300
       182.49100        5.7721400        13.280600
       185.44200        6.0036600        13.549100
       188.44200        6.2492100        13.823100
       191.48900        6.5121700        14.086200
       194.58700        6.7774400        14.338800
       197.73400        7.0423200        14.595900
       200.93200        7.3183400        14.857700
       204.18200        7.6103100        15.124100
       207.48500        7.9327900        15.395300
       210.84000        8.2844700        15.622900
       214.25100        8.6242300        15.825900
       217.71600        8.9515700        16.031500
       221.23700        9.2846300        16.239700
       224.81600        9.6271600        16.450700
       228.45200        9.9837000        16.664400
       232.14700        10.376700        16.880900
       235.90200        10.798800        17.063400
       239.71700        11.212400        17.202700
       243.59500        11.617000        17.343100
       247.53500        12.029700        17.484800
       251.53800        12.459000        17.627500
       255.60700        12.956300        17.771400
       259.74100        13.501800        17.828900
       263.94200        13.995900        17.765500
       268.21100        14.423600        17.702300
       272.54900        14.820700        17.639400
       276.95700        15.196800        17.576600
       281.43700        15.556900        17.514100
       285.98900        15.904200        17.451800
       290.61500        16.241000        17.389800
       295.31500        16.568900        17.327900
       300.09200        16.889300        17.266300
       304.94500        17.203200        17.204900
       309.87800        17.511700        17.143700
       314.89000        17.815500        17.082700
       319.98300        18.115300        17.022000
       325.15800        18.412000        16.961400
       330.41800        18.706100        16.901100
       335.76200        18.998400        16.841000
       341.19200        19.289500        16.781100
       346.71100        19.580200        16.721400
       352.31900        19.871300        16.661900
       358.01700        20.163800        16.602700
       363.80800        20.458900        16.543600
       369.69200        20.758200        16.484800
       375.67200        21.063800        16.426100
       381.74800        21.379300        16.367700
       387.92200        21.711200        16.309500
       394.19700        22.081500        16.251500
       400.57300        22.495000        16.109600
       407.05200        22.862100        15.894500
       413.63500        23.164500        15.682200
       420.32600        23.445600        15.472800
       427.12400        23.708100        15.266100
       434.03200        23.955900        15.062300
       441.05200        24.191200        14.861100
       448.18600        24.415800        14.662600
       455.43500        24.631200        14.466800
       462.80200        24.838400        14.273600
       470.28700        25.038500        14.083000
       477.89400        25.232400        13.894900
       485.62300        25.420800        13.709300
       493.47800        25.604800        13.526300
       501.45900        25.785300        13.345600
       509.57000        25.963900        13.167400
       517.81200        26.142800        12.991600
       526.18700        26.328000        12.818000
       534.69800        26.527500        12.626100
       543.34600        26.711200        12.401200
       552.13400        26.862800        12.180200
       561.06500        27.002700        11.963200
       570.13900        27.131900        11.750000
       579.36100        27.252100        11.540700
       588.73200        27.364400        11.335100
       598.25400        27.469500        11.133100
       607.93000        27.568100        10.934800
       617.76300        27.660600        10.739900
       627.75500        27.747600        10.548600
       637.90800        27.829200        10.360600
       648.22600        27.905900        10.176000
       658.71100        27.977800        9.9947300
       669.36500        28.044800        9.8166500
       680.19100        28.105900        9.6417400
       691.19300        28.162600        9.4757500
       702.37200        28.219800        9.3136700
       713.73300        28.276000        9.1543700
       725.27700        28.330800        8.9977800
       737.00800        28.384500        8.8438800
       748.92800        28.437900        8.6926000
       761.04200        28.492000        8.5439200
       773.35100        28.550800        8.3977800
       785.85900        28.614200        8.2391300
       798.57000        28.668000        8.0741000
       811.48600        28.713600        7.9123700
       824.61100        28.757500        7.7538900
       837.94900        28.823100        7.5985700
       851.50200        28.885700        7.3893400
       865.27400        28.897400        7.1825900
       879.26900        28.892900        6.9816400
       893.49100        28.858000        6.7863000
       907.94300        28.808800        6.6297500
       922.62800        28.777400        6.4827400
       937.55100        28.744100        6.3389800
       952.71500        28.708400        6.1984200
       968.12400        28.668600        6.0609700
       983.78300        28.623700        5.9297600
       999.69500        28.577400        5.8052800
       1015.8600        28.531300        5.6833100
       1032.2900        28.482700        5.5628200
       1048.9900        28.430800        5.4435000
       1065.9600        28.374100        5.3252500
       1083.2000        28.311700        5.2096300
       1100.7200        28.244400        5.0965200
       1118.5200        28.171900        4.9858800
       1136.6100        28.093700        4.8775000
       1155.0000        28.009400        4.7715000
       1173.6800        27.918700        4.6678500
       1192.6600        27.821100        4.5665600
       1211.9500        27.716100        4.4674000
       1231.5500        27.603200        4.3702900
       1251.4700        27.481500        4.2745000
       1271.7200        27.349300        4.1797600
       1292.2900        27.204800        4.0858300
       1313.1900        27.046000        3.9942000
       1334.4300        26.871900        3.9046000
       1356.0100        26.680200        3.8169300
       1377.9400        26.468300        3.7311600
       1400.2300        26.232500        3.6473400
       1422.8800        25.968500        3.5654900
       1445.8900        25.670500        3.4853400
       1469.2800        25.330200        3.4065000
       1493.0400        24.937200        3.3287400
       1517.1900        24.473100        3.2492800
       1541.7300        23.909500        3.1712900
       1566.6700        23.206800        3.0952400
       1592.0100        22.288600        3.0209700
       1617.7600        20.993100        2.9484700
       1643.9200        18.864800        2.8777300
       1670.5100        13.082300        2.8086900
       1678.3000       -4.6358400        2.7889800
       1678.5000       -4.6291900        15.613600
       1697.5300        17.027000        15.388300
       1724.9900        20.832100        15.073200
       1752.8900        22.853200        14.764600
       1781.2400        24.225000        14.462300
       1810.0500        25.239600        14.166400
       1839.3200        26.006400        13.876200
       1869.0700        26.551100        13.592000
       1899.3000        26.780200        13.313900
       1920.9000        24.288200        13.121300
       1921.1000        24.298500        14.915500
       1930.0200        26.913800        14.824400
       1961.2400        28.325400        14.513100
       1992.9600        29.155400        14.208300
       2025.2000        29.818000        13.916000
       2057.9500        30.391800        13.617400
       2091.2400        30.893400        13.321800
       2125.0600        31.341500        13.029500
       2159.4300        31.746400        12.741100
       2194.3600        32.115000        12.455900
       2229.8500        32.452000        12.174800
       2265.9200        32.761500        11.897600
       2302.5700        33.046500        11.624700
       2339.8100        33.309700        11.355800
       2377.6600        33.552900        11.091200
       2416.1100        33.778100        10.830700
       2455.1900        33.986600        10.574700
       2494.9000        34.180100        10.323000
       2535.2600        34.359300        10.075600
       2576.2600        34.525500        9.8328200
       2617.9300        34.679700        9.5946000
       2660.2700        34.823000        9.3607200
       2703.3000        34.955500        9.1309200
       2747.0300        35.078000        8.9059300
       2791.4600        35.191600        8.6854600
       2836.6100        35.296800        8.4695200
       2882.4900        35.394100        8.2572800
       2929.1100        35.483300        8.0499500
       2976.4800        35.565700        7.8469000
       3024.6300        35.641600        7.6480100
       3073.5500        35.711200        7.4534800
       3123.2600        35.774900        7.2628100
       3173.7800        35.832900        7.0765400
       3225.1100        35.885600        6.8943500
       3277.2700        35.933500        6.7168100
       3330.2800        35.977100        6.5424800
       3384.1500        36.016100        6.3723900
       3438.8800        36.051100        6.2061900
       3494.5000        36.082200        6.0438600
       3551.0200        36.109600        5.8852600
       3608.4600        36.133600        5.7303800
       3666.8200        36.154400        5.5791600
       3726.1300        36.172200        5.4316000
       3786.4000        36.187100        5.2875200
       3847.6400        36.199300        5.1469000
       3909.8700        36.209000        5.0097400
       3973.1100        36.216300        4.8758800
       4037.3800        36.221400        4.7453800
       4102.6800        36.224300        4.6180500
       4169.0300        36.225300        4.4938400
       4236.4600        36.224400        4.3727700
       4304.9800        36.221800        4.2548000
       4374.6200        36.217500        4.1397200
       4445.3700        36.211700        4.0275600
       4517.2700        36.204500        3.9182800
       4590.3300        36.195900        3.8117600
       4664.5800        36.186000        3.7079600
       4740.0300        36.175000        3.6068800
       4816.6900        36.162800        3.5084000
       4894.6000        36.149600        3.4124700
       4973.7700        36.135500        3.3189900
       5054.2100        36.120400        3.2280000
       5135.9600        36.104600        3.1393700
       5219.0300        36.087800        3.0530600
       5303.4400        36.070400        2.9691100
       5389.2200        36.052300        2.8872900
       5476.3900        36.033500        2.8076800
       5564.9700        36.014200        2.7302000
       5654.9800        35.994300        2.6547400
       5746.4400        35.973900        2.5813600
       5839.3900        35.953000        2.5099200
       5933.8300        35.931700        2.4404200
       6029.8100        35.909900        2.3727200
       6127.3300        35.887700        2.3068800
       6226.4400        35.865200        2.2428800
       6327.1500        35.842300        2.1806300
       6429.4800        35.819100        2.1200300
       6533.4800        35.795600        2.0609900
       6639.1500        35.771700        2.0037000
       6746.5400        35.747600        1.9479100
       6855.6500        35.723200        1.8936900
       6966.5400        35.698600        1.8408600
       7079.2200        35.673700        1.7896100
       7193.7200        35.648500        1.7396600
       7310.0700        35.623000        1.6911600
       7428.3100        35.597300        1.6439400
       7548.4500        35.571300        1.5981200
       7670.5400        35.545100        1.5535700
       7794.6100        35.518600        1.5101600
       7920.6800        35.491700        1.4679800
       8048.7900        35.464600        1.4269900
       8178.9800        35.437100        1.3871400
       8311.2600        35.409300        1.3484100
       8445.6900        35.381000        1.3107600
       8582.2900        35.352400        1.2741500
       8721.1100        35.323300        1.2385800
       8862.1600        35.293800        1.2040000
       9005.5000        35.263600        1.1703800
       9151.1600        35.232900        1.1377200
       9299.1700        35.201500        1.1059600
       9449.5800        35.169400        1.0751100
       9602.4200        35.136500        1.0451200
       9757.7300        35.102700        1.0159700
       9915.5500        35.067900       0.98762300
       10075.900        35.031900       0.96009500
       10238.900        34.994700       0.93334300
       10404.500        34.956000       0.90734700
       10572.800        34.915700       0.88208300
       10743.800        34.873500       0.85753400
       10917.600        34.829200       0.83367800
       11094.200        34.782400       0.81049600
       11273.600        34.732900       0.78797000
       11455.900        34.680000       0.76608300
       11641.200        34.623100       0.74481400
       11829.500        34.561700       0.72414700
       12020.800        34.494700       0.70406600
       12215.300        34.420900       0.68455300
       12412.800        34.338700       0.66559400
       12613.600        34.245900       0.64717200
       12817.600        34.139300       0.62927200
       13025.000        34.014100       0.61188000
       13235.600        33.863100       0.59498000
       13449.700        33.673700       0.57856100
       13667.200        33.421700       0.56260600
       13888.300        33.051500       0.54710400
       14112.900        32.376500       0.53204100
       14325.500        24.668000       0.51837900
       14325.700        24.668200        3.7118600
       14341.200        29.814800        3.7057500
       14573.100        32.706200        3.6161100
       14808.900        33.437000        3.5280400
       15048.400        33.883600        3.4415400
       15291.800        34.207100        3.3566200
       15539.100        34.460500        3.2732800
       15790.400        34.667900        3.1915300
       16045.800        34.842800        3.1113600
       16305.400        34.993100        3.0327700
       16569.100        35.124100        2.9557600
       16837.100        35.239700        2.8803000
       17109.400        35.342300        2.8064100
       17386.100        35.434200        2.7340700
       17667.400        35.516800        2.6632600
       17953.100        35.591300        2.5939700
       18243.500        35.658900        2.5261800
       18538.600        35.720200        2.4598900
       18838.400        35.775900        2.3950700
       19143.100        35.826800        2.3317100
       19452.700        35.873100        2.2697800
       19767.400        35.915400        2.2092700
       20087.100        35.954100        2.1501600
       20412.000        35.989400        2.0924200
       20742.100        36.021600        2.0360400
       21077.600        36.051000        1.9810000
       21418.500        36.077900        1.9272700
       21765.000        36.102300        1.8748400
       22117.000        36.124600        1.8236700
       22474.700        36.144800        1.7737500
       22838.200        36.163200        1.7250600
       23207.600        36.179800        1.6775700
       23583.000        36.194700        1.6312600
       23964.400        36.208200        1.5861100
       24352.000        36.220300        1.5420900
       24745.900        36.231100        1.4991900
       25146.200        36.240600        1.4573700
       25552.900        36.249100        1.4166300
       25966.200        36.256500        1.3769300
       26386.100        36.262900        1.3382500
       26812.900        36.268400        1.3005800
       27246.600        36.273000        1.2638800
       27687.300        36.276900        1.2281500
       28135.100        36.280100        1.1933500
       28590.200        36.282600        1.1594800
       29052.600        36.284600        1.1264900
       29522.500        36.289100        1.0943900
       30000.000        36.276800        1.0631400
       30400.000        36.279300        1.0471600
       30800.000        36.279400        1.0228400
       31200.000        36.278900       0.99939300
       31500.000        36.278500       0.98235100
       31900.000        36.277600       0.96032300
       32300.000        36.276600       0.93905400
       32600.000        36.275700       0.92357900
       33000.000        36.274500       0.90355600
       33400.000        36.273000       0.88405000
       33800.000        36.271400       0.86519100
       34100.000        36.270100       0.85145200
       34500.000        36.268300       0.83365500
       34900.000        36.266400       0.81642800
       35300.000        36.264500       0.79956700
       35700.000        36.262200       0.78317800
       36030.000        36.260400       0.77004500
       36500.000        36.257600       0.75191900
       37000.000        36.254600       0.73334900
       37500.000        36.251400       0.71547800
       38000.000        36.248200       0.69827000
       38500.000        36.244900       0.68161100
       39000.000        36.241500       0.66555700
       39500.000        36.238200       0.65007800
       40000.000        36.234800       0.63514700
       40800.000        36.229300       0.61222600
       41500.000        36.224500       0.59319700
       42300.000        36.219000       0.57254200
       43000.000        36.214100       0.55536300
       43800.000        36.208700       0.53649800
       44500.000        36.203900       0.52078400
       45300.000        36.198500       0.50364100
       46000.000        36.193700       0.48929200
       46500.000        36.190300       0.47942300
       47000.000        36.187000       0.46985400
       47500.000        36.183700       0.46057500
       48000.000        36.180300       0.45157400
       48500.000        36.177100       0.44281500
       49000.000        36.173900       0.43431300
       49500.000        36.170700       0.42605800
       50000.000        36.167500       0.41804000
       50500.000        36.164400       0.41019200
       51000.000        36.161300       0.40256600
       51500.000        36.158200       0.39515400
       52000.000        36.155100       0.38794800
       52500.000        36.152100       0.38094100
       53000.000        36.149200       0.37412500
       54000.000        36.143200       0.36103900
       55000.000        36.137600       0.34863800
       56000.000        36.132000       0.33678300
       56800.000        36.127600       0.32773400
       57530.000        36.123700       0.31979600
       58000.000        36.121200       0.31483900
       58500.000        36.118600       0.30969300
       59540.000        36.113300       0.29939000
       59800.000        36.112000       0.29689500
       60000.000        36.111000       0.29499800
       60800.000        36.107100       0.28754000
       61500.000        36.103700       0.28124600
       62300.000        36.099900       0.27430600
       63000.000        36.096600       0.26844400
       64000.000        36.092100       0.26039400
       65000.000        36.087600       0.25270500
       65900.000        36.083800       0.24603900
       66830.000        36.079800       0.23942600
       67400.000        36.077400       0.23550600
       68000.000        36.075000       0.23148300
       69000.000        36.071000       0.22500500
       70000.000        36.067100       0.21879800
       71000.000        36.063300       0.21281900
       72000.000        36.059600       0.20708400
       72800.000        36.056800       0.20266200
       73500.000        36.054300       0.19890900
       74200.000        36.051800       0.19526000
       74960.000        36.049200       0.19141200
       75500.000        36.047400       0.18873600
       76000.000        36.045700       0.18630700
       77110.000        36.042100       0.18108200
       78600.000        36.037400       0.17440800
       79300.000        36.035300       0.17140000
       80000.000        36.033100       0.16847000
       81500.000        36.028800       0.16241200
       83000.000        36.024500       0.15667700
       84000.000        36.021800       0.15302100
       85000.000        36.019100       0.14949300
       86500.000        36.015200       0.14442500
       88000.000        36.011400       0.13961200
       89000.000        36.009000       0.13653700
       90000.000        36.006600       0.13356200
       91500.000        36.003200       0.12925900
       93000.000        35.999800       0.12516000
       94000.000        35.997600       0.12253600
       95000.000        35.995500       0.11999300
       96500.000        35.992400       0.11632600
       98000.000        35.989400       0.11282500
       99000.000        35.987500       0.11057800
       99500.000        35.986500       0.10948000
       100000.00        35.985600       0.10839900
