;  Atomic scattering factors for Lu.
;   
;  Concatenation of data from CXRO <http://www-cxro.lbl.gov>
;  and LLNL <http://www-phys.llnl.gov/V_Div/scattering/asf.html>
;  
;  E (eV) f1 f2
;---------------
       10.000000       -9999.0000        1.6749300
       10.161700       -9999.0000        1.6382400
       10.326100       -9999.0000        1.6023600
       10.493100       -9999.0000        1.5672600
       10.662800       -9999.0000        1.5329300
       10.835300       -9999.0000        1.4993500
       11.010600       -9999.0000        1.4665100
       11.188600       -9999.0000        1.4353800
       11.369600       -9999.0000        1.4242400
       11.553500       -9999.0000        1.4131900
       11.740400       -9999.0000        1.4022300
       11.930300       -9999.0000        1.3896300
       12.123200       -9999.0000        1.3681500
       12.319300       -9999.0000        1.3469900
       12.518600       -9999.0000        1.3261600
       12.721000       -9999.0000        1.3010800
       12.926800       -9999.0000        1.2764400
       13.135900       -9999.0000        1.2522700
       13.348300       -9999.0000        1.2285600
       13.564200       -9999.0000        1.2052900
       13.783600       -9999.0000        1.1826000
       14.006600       -9999.0000        1.1613900
       14.233100       -9999.0000        1.1405700
       14.463300       -9999.0000        1.1201200
       14.697300       -9999.0000        1.1000400
       14.935000       -9999.0000        1.0808700
       15.176500       -9999.0000        1.0652300
       15.422000       -9999.0000        1.0498100
       15.671400       -9999.0000        1.0346200
       15.924900       -9999.0000        1.0196400
       16.182500       -9999.0000        1.0002000
       16.444200       -9999.0000       0.97519100
       16.710200       -9999.0000       0.95080600
       16.980500       -9999.0000       0.92703000
       17.255100       -9999.0000       0.90385000
       17.534200       -9999.0000       0.88151400
       17.817800       -9999.0000       0.86248000
       18.106000       -9999.0000       0.84385800
       18.398900       -9999.0000       0.82563700
       18.696400       -9999.0000       0.80781000
       18.998800       -9999.0000       0.79036800
       19.306100       -9999.0000       0.77457300
       19.618400       -9999.0000       0.75947300
       19.935700       -9999.0000       0.74466800
       20.258200       -9999.0000       0.73015000
       20.585800       -9999.0000       0.71594500
       20.918800       -9999.0000       0.70363400
       21.257100       -9999.0000       0.69153400
       21.600900       -9999.0000       0.67964200
       21.950300       -9999.0000       0.66795500
       22.305300       -9999.0000       0.65606200
       22.666100       -9999.0000       0.64433200
       23.032700       -9999.0000       0.63376200
       23.405300       -9999.0000       0.63056400
       23.783800       -9999.0000       0.62738200
       24.168500       -9999.0000       0.62439800
       24.559400       -9999.0000       0.62214000
       24.956600       -9999.0000       0.61989000
       25.360300       -9999.0000       0.61783500
       25.770500       -9999.0000       0.61748000
       26.187300       -9999.0000       0.61712600
       26.610900       -9999.0000       0.62068200
       27.041300       -9999.0000       0.64134100
       27.478600       -9999.0000       0.66938300
       27.923100       -9999.0000       0.70577000
       28.374700       -9999.0000       0.78680600
       28.833700       -9999.0000       0.94578000
       29.300000       -5.1309000        2.2299000
       29.773900       -6.1853900        3.3620900
       30.255500       -6.3245300        6.1283400
       30.744900       -5.7783400        8.0799500
       31.242100       -5.0448500        9.7334400
       31.747500       -3.7415500        10.738800
       32.260900       -2.5998600        11.377500
       32.782700       -1.7024800        11.760700
       33.313000      -0.88787500        12.111700
       33.851800      -0.18943400        12.358800
       34.399300       0.41374500        12.610800
       34.955700        1.0170600        12.959500
       35.521100        1.7115700        13.318000
       36.095600        2.6051800        13.538400
       36.679400        3.3535200        13.513600
       37.272700        4.0210300        13.502900
       37.875500        4.6981000        13.492300
       38.488200        5.4965900        13.274700
       39.110700        5.9562100        12.861200
       39.743200        6.2797200        12.662000
       40.386100        6.6227600        12.486700
       41.039300        6.9508800        12.313900
       41.703100        7.2582400        12.144800
       42.377600        7.5513400        11.980300
       43.063000        7.8390900        11.818000
       43.759500        8.1254800        11.612700
       44.467300        8.3483800        11.384900
       45.186500        8.5186400        11.161600
       45.917400        8.6202400        10.975300
       46.660000        8.7305700        10.828000
       47.414700        8.8200700        10.682700
       48.181600        8.8524700        10.605300
       48.960900        8.9523200        10.588800
       49.752800        9.0965500        10.572400
       50.557600        9.3051500        10.513900
       51.375300        9.4636600        10.397700
       52.206200        9.5888000        10.282800
       53.050600        9.6905500        10.169100
       53.908700        9.7594800        10.078900
       54.780600        9.8427300        10.010700
       55.666700        9.9303300        9.9429800
       56.567000        10.015300        9.8757000
       57.482000        10.096500        9.8090100
       58.411700        10.172500        9.7427700
       59.356400        10.241100        9.6769800
       60.316500        10.298300        9.6195900
       61.292100        10.359600        9.5706400
       62.283400        10.421900        9.5219500
       63.290800        10.488100        9.4734900
       64.314500        10.543000        9.4008400
       65.354700        10.573300        9.3287600
       66.411800        10.565600        9.2572300
       67.485900        10.544900        9.2643800
       68.577500        10.557000        9.2822700
       69.686700        10.587500        9.3002100
       70.813800        10.627400        9.3181700
       71.959100        10.679200        9.3329400
       73.123000        10.730300        9.3376400
       74.305700        10.780300        9.3423300
       75.507600        10.833500        9.3470300
       76.728900        10.899200        9.3517400
       77.969900        10.980200        9.3141600
       79.231000        11.015800        9.2481000
       80.512500        11.018200        9.1825100
       81.814700        10.986500        9.1173900
       83.138000        10.893300        9.0527300
       84.482700        10.685600        9.1160500
       85.849100        10.599900        9.2961400
       87.237700        10.609400        9.4797800
       88.648700        10.696800        9.6121700
       90.082500        10.754800        9.6895300
       91.539500        10.804100        9.7675100
       93.020100        10.857000        9.8461200
       94.524600        10.931200        9.9112200
       96.053500        10.981800        9.9391300
       97.607100        11.009900        9.9671200
       99.185800        11.016800        9.9951900
       100.79000        10.986800        10.037300
       102.42000        10.967200        10.123700
       104.07700        10.955600        10.210800
       105.76000        10.942100        10.298700
       107.47100        10.911200        10.387300
       109.20900        10.872200        10.524500
       110.97500        10.856300        10.675000
       112.77000        10.854500        10.827700
       114.59400        10.855400        10.982500
       116.44800        10.855400        11.152800
       118.33100        10.870300        11.334100
       120.24500        10.896600        11.518400
       122.19000        10.929800        11.705600
       124.16600        10.968200        11.895900
       126.17500        11.006400        12.093600
       128.21500        11.057500        12.305400
       130.28900        11.120500        12.520900
       132.39700        11.194000        12.740200
       134.53800        11.277900        12.963300
       136.71400        11.373000        13.189900
       138.92500        11.479200        13.419800
       141.17200        11.598200        13.653600
       143.45600        11.734300        13.891500
       145.77600        11.905200        14.133500
       148.13400        12.092900        14.324900
       150.53000        12.260300        14.502900
       152.96400        12.421300        14.683100
       155.43900        12.582600        14.865500
       157.95300        12.749800        15.050200
       160.50700        12.926800        15.222800
       163.10300        13.095100        15.387100
       165.74200        13.257100        15.553300
       168.42200        13.417300        15.721200
       171.14600        13.575900        15.890900
       173.91500        13.731200        16.062500
       176.72700        13.883100        16.245200
       179.58600        14.041900        16.434800
       182.49100        14.208000        16.625000
       185.44200        14.370800        16.811200
       188.44200        14.523500        16.998100
       191.48900        14.636100        17.200200
       194.58700        14.771400        17.482400
       197.73400        14.936800        17.793700
       200.93200        15.160100        18.131100
       204.18200        15.436000        18.474700
       207.48500        15.775200        18.825100
       210.84000        16.241000        19.182400
       214.25100        16.736200        19.313300
       217.71600        17.194600        19.395400
       221.23700        17.577600        19.438600
       224.81600        17.924300        19.481600
       228.45200        18.248600        19.524600
       232.14700        18.556700        19.567500
       235.90200        18.852200        19.610600
       239.71700        19.137600        19.653700
       243.59500        19.413800        19.696800
       247.53500        19.682500        19.740600
       251.53800        19.945000        19.784200
       255.60700        20.199900        19.827200
       259.74100        20.447800        19.871300
       263.94200        20.688700        19.915300
       268.21100        20.920300        19.959000
       272.54900        21.138000        20.003400
       276.95700        21.327800        20.069000
       281.43700        21.527000        20.161800
       285.98900        21.742400        20.272800
       290.61500        21.970800        20.386700
       295.31500        22.208900        20.501000
       300.09200        22.454100        20.616700
       304.94500        22.706200        20.732600
       309.87800        22.963600        20.848300
       314.89000        23.226100        20.965400
       319.98300        23.494400        21.083400
       325.15800        23.768900        21.202000
       330.41800        24.049400        21.321200
       335.76200        24.336400        21.441200
       341.19200        24.630800        21.562200
       346.71100        24.933100        21.683000
       352.31900        25.243300        21.804400
       358.01700        25.563400        21.927200
       363.80800        25.894900        22.050400
       369.69200        26.239800        22.174600
       375.67200        26.602700        22.299900
       381.74800        26.991800        22.425400
       387.92200        27.425000        22.536300
       394.19700        27.904800        22.614000
       400.57300        28.389800        22.582900
       407.05200        28.807000        22.508900
       413.63500        29.185900        22.436000
       420.32600        29.540900        22.362700
       427.12400        29.876200        22.289500
       434.03200        30.193100        22.216500
       441.05200        30.491600        22.143700
       448.18600        30.740500        22.080900
       455.43500        30.987700        22.067500
       462.80200        31.246600        22.089100
       470.28700        31.532600        22.129700
       477.89400        31.845700        22.171100
       485.62300        32.175900        22.211500
       493.47800        32.522400        22.251800
       501.45900        32.890000        22.293500
       509.57000        33.285900        22.334200
       517.81200        33.736000        22.360500
       526.18700        34.224300        22.336600
       534.69800        34.716100        22.217100
       543.34600        35.145000        22.051100
       552.13400        35.540700        21.886400
       561.06500        35.917500        21.710800
       570.13900        36.274700        21.529900
       579.36100        36.611700        21.344600
       588.73200        36.933500        21.159900
       598.25400        37.243000        20.976000
       607.93000        37.543300        20.793600
       617.76300        37.837600        20.612900
       627.75500        38.133500        20.432400
       637.90800        38.429500        20.237000
       648.22600        38.715800        20.019500
       658.71100        38.970700        19.788600
       669.36500        39.194400        19.560200
       680.19100        39.393000        19.365200
       691.19300        39.601800        19.195400
       702.37200        39.843300        19.029900
       713.73300        40.094800        18.828700
       725.27700        40.318900        18.604300
       737.00800        40.523700        18.382300
       748.92800        40.716700        18.162700
       761.04200        40.901900        17.945300
       773.35100        41.083100        17.726700
       785.85900        41.257600        17.498900
       798.57000        41.414000        17.264400
       811.48600        41.555400        17.032700
       824.61100        41.685100        16.803900
       837.94900        41.804900        16.578000
       851.50200        41.915200        16.353300
       865.27400        42.015900        16.129900
       879.26900        42.105900        15.907900
       893.49100        42.186000        15.688600
       907.94300        42.257400        15.472100
       922.62800        42.322200        15.258400
       937.55100        42.377400        15.040700
       952.71500        42.421600        14.824300
       968.12400        42.454200        14.609600
       983.78300        42.477200        14.397700
       999.69500        42.492900        14.186300
       1015.8600        42.504600        13.975300
       1032.2900        42.499300        13.745300
       1048.9900        42.473300        13.515900
       1065.9600        42.425100        13.287200
       1083.2000        42.357100        13.062300
       1100.7200        42.270200        12.840900
       1118.5200        42.164000        12.623100
       1136.6100        42.037200        12.408200
       1155.0000        41.889000        12.196900
       1173.6800        41.718200        11.989200
       1192.6600        41.522800        11.784600
       1211.9500        41.300700        11.583200
       1231.5500        41.048900        11.385000
       1251.4700        40.764100        11.189900
       1271.7200        40.442300        10.998500
       1292.2900        40.079100        10.810500
       1313.1900        39.668100        10.625700
       1334.4300        39.201600        10.443700
       1356.0100        38.668800        10.264300
       1377.9400        38.056000        10.088100
       1400.2300        37.345400        9.9147300
       1422.8800        36.511200        9.7440600
       1445.8900        35.516200        9.5759400
       1469.2800        34.303700        9.4086000
       1493.0400        32.776700        9.2410900
       1517.1900        30.747000        9.0646700
       1541.7300        27.805200        8.8899200
       1566.6700        22.605400        8.7184200
       1588.4000       -11.035000        8.5738000
       1588.6000       -11.035800        27.827000
       1592.0100        10.657300        27.731200
       1617.7600        21.187100        27.024400
       1643.9200        21.336000        33.689100
       1670.5100        27.149200        38.942500
       1697.5300        33.622000        38.021800
       1724.9900        37.308200        37.122200
       1752.8900        40.032200        36.245000
       1781.2400        42.200500        35.389100
       1810.0500        43.991900        34.553900
       1839.3200        45.503300        33.738100
       1869.0700        46.793000        32.941700
       1899.3000        47.898600        32.164400
       1930.0200        48.842800        31.405600
       1961.2400        49.633900        30.664900
       1992.9600        50.250500        29.942100
       2023.5000        49.772600        29.272800
       2023.7000        49.782300        29.866800
       2025.2000        50.334900        29.834000
       2057.9500        51.453600        29.130900
       2091.2400        51.994700        28.444400
       2125.0600        52.349200        27.775100
       2159.4300        52.508600        27.121200
       2194.3600        52.388600        26.483800
       2229.8500        51.671600        25.861400
       2263.4000        41.764900        25.295300
       2263.6000        41.780900        31.265100
       2265.9200        47.427000        31.218800
       2302.5700        53.089500        30.501200
       2339.8100        54.808900        29.801000
       2377.6600        55.954300        29.117200
       2416.1100        56.816700        28.450100
       2455.1900        57.514400        27.799500
       2491.1000        58.350200        27.223700
       2491.3000        58.351800        27.190200
       2494.9000        57.733400        27.230200
       2535.2600        58.362700        27.679400
       2576.2600        59.361400        27.094700
       2617.9300        60.066300        26.519500
       2660.2700        60.668500        25.953700
       2703.3000        61.203600        25.396600
       2747.0300        61.686900        24.849100
       2791.4600        62.128100        24.311400
       2836.6100        62.533200        23.783200
       2882.4900        62.907100        23.264600
       2929.1100        63.252800        22.754800
       2976.4800        63.572800        22.254500
       3024.6300        63.869400        21.763300
       3073.5500        64.144700        21.281800
       3123.2600        64.400900        20.809300
       3173.7800        64.638500        20.345000
       3225.1100        64.859400        19.890400
       3277.2700        65.064200        19.443300
       3330.2800        65.253500        19.005800
       3384.1500        65.429400        18.577300
       3438.8800        65.592300        18.156700
       3494.5000        65.743100        17.744400
       3551.0200        65.881400        17.339900
       3608.4600        66.009000        16.944800
       3666.8200        66.126300        16.556400
       3726.1300        66.234000        16.177200
       3786.4000        66.332000        15.804100
       3847.6400        66.420800        15.439900
       3909.8700        66.501600        15.082800
       3973.1100        66.574200        14.733200
       4037.3800        66.639100        14.390900
       4102.6800        66.696700        14.055800
       4169.0300        66.747200        13.727800
       4236.4600        66.791100        13.406700
       4304.9800        66.828600        13.092600
       4374.6200        66.860000        12.785100
       4445.3700        66.885500        12.484200
       4517.2700        66.905500        12.189900
       4590.3300        66.919900        11.901800
       4664.5800        66.929100        11.620200
       4740.0300        66.933300        11.344700
       4816.6900        66.932600        11.075200
       4894.6000        66.927200        10.811700
       4973.7700        66.917400        10.554000
       5054.2100        66.902900        10.302100
       5135.9600        66.884200        10.055800
       5219.0300        66.861300        9.8149200
       5303.4400        66.834200        9.5794200
       5389.2200        66.802800        9.3492100
       5476.3900        66.767500        9.1242900
       5564.9700        66.728100        8.9043600
       5654.9800        66.684700        8.6894400
       5746.4400        66.637200        8.4794100
       5839.3900        66.585600        8.2741100
       5933.8300        66.529800        8.0735000
       6029.8100        66.469900        7.8774400
       6127.3300        66.405500        7.6857800
       6226.4400        66.336500        7.4985400
       6327.1500        66.263000        7.3157200
       6429.4800        66.184500        7.1368200
       6533.4800        66.100700        6.9622400
       6639.1500        66.011500        6.7915800
       6746.5400        65.916300        6.6248500
       6855.6500        65.814700        6.4619300
       6966.5400        65.706100        6.3028800
       7079.2200        65.589900        6.1473900
       7193.7200        65.465200        5.9955600
       7310.0700        65.331200        5.8473000
       7428.3100        65.186400        5.7021400
       7548.4500        65.029200        5.5606400
       7670.5400        64.858100        5.4223300
       7794.6100        64.670300        5.2871900
       7920.6800        64.462800        5.1550700
       8048.7900        64.231200        5.0260800
       8178.9800        63.969900        4.9001400
       8311.2600        63.670700        4.7771000
       8445.6900        63.321200        4.6569300
       8582.2900        62.902300        4.5394700
       8721.1100        62.379700        4.4245600
       8862.1600        61.687000        4.3125400
       9005.5000        60.658200        4.2029100
       9151.1600        58.615900        4.0959400
       9244.0000        43.607600        4.0300500
       9244.2000        43.608900        10.988500
       9299.1700        57.581700        10.868100
       9449.5800        60.487500        10.548600
       9602.4200        61.607900        10.238800
       9757.7300        62.202600        9.9383100
       9915.5500        62.476400        9.6464600
       10075.900        62.433500        9.3631200
       10238.900        61.779700        9.0881100
       10348.500        53.960100        8.9101000
       10348.700        53.960800        12.523900
       10404.500        61.352500        12.397800
       10572.800        63.123100        12.029200
       10743.800        63.682700        11.671500
       10870.300        60.943100        11.417300
       10870.500        60.943600        12.832700
       10917.600        63.869400        12.756700
       11094.200        65.085200        12.478600
       11273.600        65.792200        12.203700
       11455.900        66.344200        11.932200
       11641.200        66.806500        11.664200
       11829.500        67.206500        11.399800
       12020.800        67.558800        11.139200
       12215.300        67.873100        10.882500
       12412.800        68.155700        10.629600
       12613.600        68.411300        10.380800
       12817.600        68.643500        10.136100
       13025.000        68.855300        9.8954000
       13235.600        69.048800        9.6588700
       13449.700        69.226000        9.4265100
       13667.200        69.388400        9.1983300
       13888.300        69.537400        8.9743600
       14112.900        69.674100        8.7545800
       14341.200        69.799700        8.5390100
       14573.100        69.914900        8.3276300
       14808.900        70.020600        8.1204300
       15048.400        70.117400        7.9173900
       15291.800        70.206100        7.7185000
       15539.100        70.287200        7.5237200
       15790.400        70.361200        7.3330100
       16045.800        70.428600        7.1463500
       16305.400        70.489900        6.9637000
       16569.100        70.545400        6.7850200
       16837.100        70.595600        6.6102600
       17109.400        70.640700        6.4393700
       17386.100        70.681100        6.2723200
       17667.400        70.717100        6.1090400
       17953.100        70.748900        5.9494900
       18243.500        70.776800        5.7936100
       18538.600        70.801200        5.6413600
       18838.400        70.822000        5.4926600
       19143.100        70.839700        5.3474700
       19452.700        70.854400        5.2057300
       19767.400        70.866300        5.0673800
       20087.100        70.875500        4.9323600
       20412.000        70.882200        4.8006100
       20742.100        70.886600        4.6720700
       21077.600        70.888800        4.5466900
       21418.500        70.889000        4.4244100
       21765.000        70.887200        4.3051500
       22117.000        70.883600        4.1888800
       22474.700        70.878400        4.0755200
       22838.200        70.871500        3.9650200
       23207.600        70.863200        3.8573100
       23583.000        70.853500        3.7523500
       23964.400        70.842500        3.6500700
       24352.000        70.830300        3.5504200
       24745.900        70.817000        3.4533300
       25146.200        70.802500        3.3587600
       25552.900        70.787100        3.2666500
       25966.200        70.770800        3.1769400
       26386.100        70.753600        3.0895700
       26812.900        70.735600        3.0045100
       27246.600        70.716800        2.9216800
       27687.300        70.697300        2.8410500
       28135.100        70.677200        2.7625500
       28590.200        70.656400        2.6861500
       29052.600        70.635000        2.6117800
       29522.500        70.613100        2.5394100
       30000.000        70.590700        2.4689800
       30400.000        70.433600        2.3108100
       30800.000        70.415700        2.2589100
       31200.000        70.397800        2.2088300
       31500.000        70.384400        2.1724100
       31900.000        70.366500        2.1252900
       32300.000        70.348500        2.0797700
       32600.000        70.335100        2.0466300
       33000.000        70.317200        2.0037200
       33400.000        70.299300        1.9619000
       33800.000        70.281400        1.9214500
       34100.000        70.268000        1.8919600
       34500.000        70.250100        1.8537300
       34900.000        70.232200        1.8167100
       35300.000        70.214300        1.7807000
       35700.000        70.196400        1.7457500
       36030.000        70.181700        1.7177300
       36300.000        70.169600        1.6953200
       36600.000        70.156100        1.6709500
       36900.000        70.142700        1.6471300
       37153.300        70.131300        1.6274300
       37900.000        70.097900        1.5714600
       38600.000        70.066600        1.5216100
       39300.000        70.035300        1.4742000
       39600.000        70.021900        1.4545800
       40000.000        70.004000        1.4290600
       40800.000        69.967900        1.3797700
       41500.000        69.936300        1.3387900
       42300.000        69.899700        1.2942400
       43000.000        69.867400        1.2571300
       43800.000        69.830100        1.2167200
       44500.000        69.797000        1.1830000
       45300.000        69.758600        1.1461800
       46000.000        69.724400        1.1153300
       46500.000        69.699500        1.0940800
       47000.000        69.674300        1.0734600
       47500.000        69.648500        1.0534300
       48000.000        69.622400        1.0339900
       48500.000        69.595700        1.0151000
       49000.000        69.568400       0.99674400
       49500.000        69.540500       0.97890200
       50000.000        69.511900       0.96155300
       50500.000        69.482500       0.94481900
       51000.000        69.452200       0.92808600
       51500.000        69.420900       0.91224300
       52000.000        69.388500       0.89640100
       52500.000        69.355000       0.88138600
       53000.000        69.320100       0.86637100
       53500.000        69.283700       0.85212500
       54000.000        69.245600       0.83788000
       54500.000        69.205600       0.82435200
       55000.000        69.163500       0.81082400
       55500.000        69.119000       0.79793800
       56000.000        69.071700       0.78505200
       56400.000        69.031500       0.77519700
       56800.000        68.989000       0.76534200
       57200.000        68.943900       0.75585000
       57530.000        68.904400       0.74802000
       57660.000        68.888200       0.74502400
       57800.000        68.870400       0.74179800
       58000.000        68.844100       0.73718900
       58300.000        68.802800       0.73043500
       58500.000        68.773800       0.72593300
       58800.000        68.728000       0.71942200
       59000.000        68.695700       0.71508100
       59300.000        68.644300       0.70856900
       59540.000        68.600300       0.70336000
       59670.000        68.575300       0.70063600
       59800.000        68.548700       0.69791300
       59900.000        68.528800       0.69581800
       59950.000        68.518200       0.69477000
       60000.000        68.507600       0.69372300
       60150.000        68.474500       0.69083500
       60300.000        68.439700       0.68794600
       60400.000        68.415600       0.68602100
       60500.000        68.390600       0.68409500
       60650.000        68.351400       0.68120600
       60800.000        68.310000       0.67831800
       60900.000        68.280900       0.67639200
       61000.000        68.250700       0.67446700
       61150.000        68.202800       0.67157800
       61300.000        68.151400       0.66869000
       61400.000        68.115100       0.66676400
       61500.000        68.076800       0.66483900
       61570.000        68.048800       0.66349100
       61650.000        68.015400       0.66195000
       61720.000        67.984800       0.66060200
       61800.000        67.948300       0.65906200
       61900.000        67.900000       0.65713600
       62000.000        67.848300       0.65521100
       62100.000        67.792700       0.65328500
       62200.000        67.732600       0.65135900
       62250.000        67.700700       0.65039600
       62300.000        67.667400       0.64943400
       62350.000        67.632500       0.64847100
       62400.000        67.596000       0.64750800
       62480.000        67.533600       0.64596800
       62550.000        67.474500       0.64462000
       62590.000        67.438500       0.64384900
       62630.000        67.400800       0.64307900
       62660.000        67.371300       0.64250100
       62700.000        67.330000       0.64173100
       62750.000        67.275200       0.64076800
       62800.000        67.216200       0.63980600
       62850.000        67.152400       0.63884300
       62900.000        67.083000       0.63788000
       62920.000        67.053400       0.63749500
       62950.000        67.006800       0.63691700
       62970.000        66.974100       0.63653200
       63000.000        66.922500       0.63595400
       63020.000        66.886000       0.63556900
       63050.000        66.828100       0.63499100
       63080.000        66.765600       0.63441400
       63100.000        66.721000       0.63402900
       63130.000        66.649200       0.63345100
       63150.000        66.597400       0.63306600
       63170.000        66.542100       0.63268100
       63200.000        66.451400       0.63210300
       63210.000        66.418700       0.63191000
       63220.000        66.384700       0.63171800
       63235.000        66.330800       0.63142900
       63250.000        66.273100       0.63114000
       63260.000        66.232200       0.63094800
       63270.000        66.189200       0.63075500
       63285.000        66.120100       0.63046600
       63300.000        66.044600       0.63017700
       63310.000        65.990100       0.62998500
       63320.000        65.931700       0.62979200
       63330.000        65.868900       0.62960000
       63340.000        65.800900       0.62940700
       63350.000        65.726700       0.62921500
       63360.000        65.645300       0.62902200
       63370.000        65.554900       0.62882900
       63375.000        65.505700       0.62873300
       63380.000        65.453400       0.62863700
       63385.000        65.397600       0.62854100
       63390.000        65.337700       0.62844400
       63395.000        65.273200       0.62834800
       63400.000        65.203400       0.62825200
       63405.000        65.127000       0.62815600
       63410.000        65.042900       0.62805900
       63415.000        64.949400       0.62796300
       63418.000        64.887800       0.62790500
       63420.000        64.844200       0.62786700
       63423.000        64.773800       0.62780900
       63425.000        64.723600       0.62777000
       63428.000        64.641900       0.62771300
       63430.000        64.582600       0.62767400
       63433.000        64.485000       0.62761600
       63435.000        64.413000       0.62757800
       63438.000        64.291700       0.62752000
       63440.000        64.200200       0.62748200
       63442.000        64.097000       0.62744300
       63443.000        64.040500       0.62742400
       63444.000        63.979400       0.62740500
       63445.500        63.879400       0.62737600
       63447.000        63.765400       0.62734700
       63448.000        63.680300       0.62732700
       63449.000        63.585400       0.62730800
       63450.500        63.420200       0.62727900
       63452.000        63.215000       0.62725000
       63453.000        63.046200       0.62723100
       63454.000        62.836900       0.62721200
       63455.000        62.566300       0.62719300
       63456.000        62.186600       0.62717300
       63457.000        61.581300       0.62715400
       63458.100        60.124300       0.62713300
       63458.100        60.119500       0.62713300
       63458.200        60.303400        1.2533600
       63458.200        60.289400        1.2533600
       63458.400        60.638900        2.5058000
       63458.700        61.141500        4.3844700
       63459.400        62.249200        8.7680200
       63460.300        63.339700       0.62709400
       63460.500        63.861100       0.62709100
       63460.600        64.082100       0.62708800
       63461.600        63.501100        4.5305000
       63462.800        63.332200        1.4374500
       63463.900        62.766800        2.8216200
       63465.000        63.068900        3.3886500
       63466.000        63.542100        3.3615100
       63467.000        63.700100        3.3343800
       63468.000        63.812400        3.3076700
       63469.000        63.903100        3.2928500
       63470.000        63.980200        3.2782300
       63471.000        64.048500        3.2635000
       63471.800        64.094400        3.2519500
       63472.500        64.131900        3.2458600
       63473.300        64.170900        3.2408500
       63474.000        64.204900        3.2364200
       63475.000        64.249000        3.2301900
       63476.000        64.289000        3.2239200
       63477.000        64.325800        3.2229900
       63478.000        64.362000        3.2220500
       63479.000        64.396000        3.2211300
       63480.000        64.427900        3.2201900
       63481.500        64.473300        3.2236600
       63483.000        64.518100        3.2271500
       63485.000        64.574100        3.2318000
       63488.000        64.653100        3.2427400
       63490.000        64.703900        3.2500400
       63493.000        64.777100        3.2602200
       63495.000        64.824500        3.2670000
       63498.000        64.892700        3.2741500
       63500.000        64.936400        3.2789100
       63504.000        65.020000        3.2840600
       63508.000        65.097200        3.2856600
       63512.000        65.168000        3.2845700
       63515.000        65.217100        3.2825900
       63519.000        65.277300        3.2790200
       63523.000        65.332000        3.2754400
       63527.000        65.382600        3.2723500
       63530.000        65.417700        3.2700300
       63535.000        65.472900        3.2684100
       63540.000        65.524300        3.2667800
       63545.000        65.572700        3.2670900
       63550.000        65.619000        3.2674000
       63560.000        65.705900        3.2688200
       63570.000        65.786700        3.2702300
       63578.000        65.846900        3.2691500
       63585.000        65.896200        3.2682000
       63593.000        65.948800        3.2661200
       63600.000        65.991300        3.2643000
       63615.000        66.075800        3.2632200
       63630.000        66.153400        3.2621400
       63640.000        66.201500        3.2614200
       63650.000        66.247100        3.2607000
       63660.000        66.290500        3.2599700
       63670.000        66.331800        3.2592500
       63685.000        66.390300        3.2581700
       63700.000        66.445000        3.2570900
       63710.000        66.479700        3.2565200
       63720.000        66.513000        3.2559500
       63750.000        66.606400        3.2542500
       63770.000        66.663700        3.2531100
       63800.000        66.743600        3.2514000
       63820.000        66.793200        3.2497200
       63850.000        66.862500        3.2471900
       63870.000        66.905800        3.2455100
       63900.000        66.967000        3.2429800
       63920.000        67.005500        3.2413000
       63950.000        67.060200        3.2387700
       63970.000        67.094900        3.2370900
       64000.000        67.144100        3.2345600
       64020.000        67.175500        3.2333000
       64050.000        67.220700        3.2314100
       64100.000        67.291800        3.2282600
       64150.000        67.357800        3.2251000
       64200.000        67.419800        3.2219500
       64250.000        67.478000        3.2181100
       64300.000        67.532400        3.2142700
       64350.000        67.583700        3.2104200
       64400.000        67.632300        3.2065800
       64450.000        67.678400        3.2027400
       64500.000        67.722400        3.1988900
       64550.000        67.764300        3.1950500
       64600.000        67.804500        3.1912100
       64650.000        67.842900        3.1872100
       64700.000        67.879800        3.1832000
       64750.000        67.915100        3.1792000
       64800.000        67.949100        3.1752000
       64900.000        68.013400        3.1672600
       64950.000        68.043700        3.1632900
       65000.000        68.072800        3.1593200
       65080.000        68.117600        3.1541500
       65150.000        68.155500        3.1496300
       65230.000        68.197200        3.1444700
       65300.000        68.232400        3.1399500
       65400.000        68.280700        3.1335500
       65500.000        68.327300        3.1271500
       65600.000        68.371800        3.1198300
       65700.000        68.414100        3.1125100
       65800.000        68.454500        3.1051900
       65900.000        68.493400        3.0978700
       66050.000        68.549600        3.0859500
       66200.000        68.601900        3.0740400
       66300.000        68.635000        3.0660900
       66400.000        68.666800        3.0581500
       66500.000        68.697400        3.0502000
       66600.000        68.726900        3.0422500
       66710.000        68.758200        3.0335100
       66830.000        68.790900        3.0239700
       66960.000        68.824800        3.0144800
       67100.000        68.859400        3.0042500
       67250.000        68.895500        2.9933000
       67400.000        68.930200        2.9823400
       67550.000        68.963600        2.9721900
       67700.000        68.995600        2.9620400
       67850.000        69.026200        2.9519000
       68000.000        69.056000        2.9417500
       68300.000        69.113500        2.9226300
       68500.000        69.150300        2.9098800
       68800.000        69.202900        2.8907600
       69000.000        69.236200        2.8780100
       69300.000        69.283700        2.8593100
       69500.000        69.314000        2.8468400
       69800.000        69.358000        2.8281400
       70000.000        69.386600        2.8156700
       70300.000        69.427600        2.7963000
       70500.000        69.453500        2.7833800
       70800.000        69.490700        2.7640100
       71000.000        69.514500        2.7510900
       71300.000        69.548900        2.7322700
       71500.000        69.571000        2.7197100
       71800.000        69.603000        2.7008900
       72000.000        69.623400        2.6883400
       72200.000        69.643300        2.6762500
       72400.000        69.662500        2.6641600
       72600.000        69.681300        2.6520700
       72800.000        69.699500        2.6399800
       73000.000        69.717200        2.6278900
       73200.000        69.734400        2.6158000
       73500.000        69.759500        2.5976700
       73900.000        69.791300        2.5747400
       74200.000        69.814100        2.5575500
       74600.000        69.843200        2.5346200
       74960.000        69.868000        2.5139900
       75080.000        69.876000        2.5075000
       75200.000        69.883900        2.5010100
       75500.000        69.903300        2.4847800
       75800.000        69.922200        2.4688700
       76000.000        69.934400        2.4582600
       76300.000        69.952300        2.4427800
       76600.000        69.969700        2.4273000
       76900.000        69.986500        2.4118200
       77110.000        69.997900        2.4009900
       77500.000        70.018600        2.3818400
       77900.000        70.038800        2.3621900
       78300.000        70.058300        2.3425400
       78600.000        70.072500        2.3278100
       79000.000        70.090800        2.3090100
       79300.000        70.104200        2.2949100
       79700.000        70.121500        2.2765400
       79850.000        70.127800        2.2696500
       80000.000        70.134100        2.2627600
       80400.000        70.150500        2.2448500
       80800.000        70.166100        2.2269500
       81200.000        70.181300        2.2090400
       81500.000        70.192300        2.1956100
       81900.000        70.206500        2.1785500
       82300.000        70.220200        2.1614800
       82700.000        70.233500        2.1444200
       83000.000        70.243200        2.1316200
       83300.000        70.252700        2.1193200
       83500.000        70.258900        2.1111200
       84000.000        70.273900        2.0906200
       84500.000        70.288300        2.0707500
       84800.000        70.296800        2.0588300
       85000.000        70.302300        2.0508800
       85400.000        70.313100        2.0354500
       85800.000        70.323600        2.0200100
       86200.000        70.333600        2.0045800
       86500.000        70.341000        1.9930000
       86900.000        70.350600        1.9782600
       87300.000        70.359900        1.9635100
       87700.000        70.368900        1.9487700
       88000.000        70.375600        1.9377100
       88500.000        70.386400        1.9196800
       89000.000        70.396700        1.9016400
       89500.000        70.406600        1.8841400
       90000.000        70.416100        1.8666300
       90800.000        70.430600        1.8394000
       91500.000        70.442400        1.8155800
       92300.000        70.455300        1.7895300
       93000.000        70.466000        1.7667300
       93500.000        70.473300        1.7508000
       94000.000        70.480200        1.7348800
       94500.000        70.486800        1.7194100
       95000.000        70.493200        1.7039400
       95800.000        70.502800        1.6800300
       96500.000        70.510700        1.6591000
       97300.000        70.519200        1.6361700
       98000.000        70.526200        1.6161100
       98500.000        70.530900        1.6022700
       99000.000        70.535500        1.5884200
       99500.000        70.539800        1.5748600
       100000.00        70.543900        1.5614800
