;  Atomic scattering factors for Mn.
;   
;  Concatenation of data from CXRO <http://www-cxro.lbl.gov>
;  and LLNL <http://www-phys.llnl.gov/V_Div/scattering/asf.html>
;  
;  E (eV) f1 f2
;---------------
       10.000000       -9999.0000        1.8899000
       10.161700       -9999.0000        1.9264400
       10.326100       -9999.0000        1.9636800
       10.493100       -9999.0000        2.0016500
       10.662800       -9999.0000        2.0403500
       10.835300       -9999.0000        2.0798000
       11.010600       -9999.0000        2.1200100
       11.188600       -9999.0000        2.1610000
       11.369600       -9999.0000        2.2027800
       11.553500       -9999.0000        2.2453700
       11.740400       -9999.0000        2.2887900
       11.930300       -9999.0000        2.3330400
       12.123200       -9999.0000        2.3767600
       12.319300       -9999.0000        2.4213000
       12.518600       -9999.0000        2.4666700
       12.721000       -9999.0000        2.5128900
       12.926800       -9999.0000        2.5599800
       13.135900       -9999.0000        2.6079600
       13.348300       -9999.0000        2.6568300
       13.564200       -9999.0000        2.7066200
       13.783600       -9999.0000        2.7573400
       14.006600       -9999.0000        2.8090100
       14.233100       -9999.0000        2.8616500
       14.463300       -9999.0000        2.9152700
       14.697300       -9999.0000        2.9699100
       14.935000       -9999.0000        3.0255600
       15.176500       -9999.0000        3.0822600
       15.422000       -9999.0000        3.1400200
       15.671400       -9999.0000        3.1988600
       15.924900       -9999.0000        3.2588000
       16.182500       -9999.0000        3.3198700
       16.444200       -9999.0000        3.3820900
       16.710200       -9999.0000        3.4421700
       16.980500       -9999.0000        3.4888400
       17.255100       -9999.0000        3.5361500
       17.534200       -9999.0000        3.5840900
       17.817800       -9999.0000        3.6326800
       18.106000       -9999.0000        3.6819400
       18.398900       -9999.0000        3.7318600
       18.696400       -9999.0000        3.7824600
       18.998800       -9999.0000        3.8337400
       19.306100       -9999.0000        3.8554400
       19.618400       -9999.0000        3.8725300
       19.935700       -9999.0000        3.8897000
       20.258200       -9999.0000        3.9069400
       20.585800       -9999.0000        3.9242700
       20.918800       -9999.0000        3.9416600
       21.257100       -9999.0000        3.9591400
       21.600900       -9999.0000        3.9766900
       21.950300       -9999.0000        3.9943200
       22.305300       -9999.0000        4.0120300
       22.666100       -9999.0000        4.0003000
       23.032700       -9999.0000        3.9730400
       23.405300       -9999.0000        3.9459600
       23.783800       -9999.0000        3.9190600
       24.168500       -9999.0000        3.8923500
       24.559400       -9999.0000        3.8658200
       24.956600       -9999.0000        3.8394700
       25.360300       -9999.0000        3.8133000
       25.770500       -9999.0000        3.7832300
       26.187300       -9999.0000        3.7298700
       26.610900       -9999.0000        3.6772600
       27.041300       -9999.0000        3.6253900
       27.478600       -9999.0000        3.5742500
       27.923100       -9999.0000        3.5238300
       28.374700       -9999.0000        3.4741300
       28.833700       -9999.0000        3.4251300
       29.300000        6.5024000        3.3769300
       29.773900        6.5217100        3.3298300
       30.255500        6.5371400        3.2833900
       30.744900        6.5486200        3.2375900
       31.242100        6.5561100        3.1924300
       31.747500        6.5595200        3.1479100
       32.260900        6.5587000        3.1040000
       32.782700        6.5534200        3.0607000
       33.313000        6.5431400        3.0180100
       33.851800        6.5263900        2.9769000
       34.399300        6.5065500        2.9410800
       34.955700        6.4844500        2.9056800
       35.521100        6.4590000        2.8707200
       36.095600        6.4297800        2.8361800
       36.679400        6.3972400        2.8020500
       37.272700        6.3646700        2.7683300
       37.875500        6.3249600        2.7164600
       38.488200        6.2672900        2.6643500
       39.110700        6.1946200        2.6132400
       39.743200        6.1073300        2.5631100
       40.386100        6.0036800        2.5139400
       41.039300        5.8805600        2.4659700
       41.703100        5.7356900        2.4214000
       42.377600        5.5639600        2.3776400
       43.063000        5.3541600        2.3346700
       43.759500        5.0792300        2.3024500
       44.467300        4.7717000        2.3390600
       45.186500        4.4178600        2.3762500
       45.917400        3.9317300        2.4140300
       46.660000        3.2955200        2.7447000
       47.414700        2.7785800        3.2564400
       48.181600        2.2758300        3.8635900
       48.960900        1.6350000        4.5839300
       49.752800        1.1525700        6.2099200
       50.557600        2.0070100        8.3674000
       51.375300        3.2773000        8.9437700
       52.206200        4.5005100        9.4383700
       53.050600        5.5411700        9.4600000
       53.908700        6.5192700        9.3757000
       54.780600        7.2431100        9.0513300
       55.666700        7.7747100        8.7381900
       56.567000        8.2012900        8.4339300
       57.482000        8.5473500        8.1393000
       58.411700        8.8276200        7.8549700
       59.356400        9.0456600        7.5805700
       60.316500        9.1969300        7.3529300
       61.292100        9.3539200        7.1648400
       62.283400        9.5010200        6.9815700
       63.290800        9.6332600        6.8029900
       64.314500        9.7496500        6.6289700
       65.354700        9.8495300        6.4594000
       66.411800        9.9297100        6.2941800
       67.485900        9.9926200        6.1489200
       68.577500        10.052900        6.0122100
       69.686700        10.106200        5.8785200
       70.813800        10.149000        5.7478100
       71.959100        10.178900        5.6200000
       73.123000        10.188200        5.4950400
       74.305700        10.162600        5.4054800
       75.507600        10.163000        5.3463500
       76.728900        10.176500        5.2878600
       77.969900        10.191800        5.2300100
       79.231000        10.206100        5.1728000
       80.512500        10.215900        5.1162000
       81.814700        10.210800        5.0678600
       83.138000        10.215100        5.0382100
       84.482700        10.227000        5.0087200
       85.849100        10.240600        4.9794000
       87.237700        10.254400        4.9502600
       88.648700        10.267200        4.9212900
       90.082500        10.277900        4.8924800
       91.539500        10.285100        4.8638500
       93.020100        10.287200        4.8353800
       94.524600        10.279800        4.8070800
       96.053500        10.246200        4.7789500
       97.607100        10.212700        4.8083300
       99.185800        10.205000        4.8435400
       100.79000        10.209600        4.8789900
       102.42000        10.222200        4.9147200
       104.07700        10.240700        4.9507000
       105.76000        10.264000        4.9869500
       107.47100        10.291400        5.0234500
       109.20900        10.322200        5.0602300
       110.97500        10.355700        5.0972800
       112.77000        10.392200        5.1366200
       114.59400        10.432700        5.1767100
       116.44800        10.477000        5.2171200
       118.33100        10.524600        5.2578500
       120.24500        10.575600        5.2988900
       122.19000        10.630000        5.3402500
       124.16600        10.688000        5.3819400
       126.17500        10.750100        5.4239500
       128.21500        10.817300        5.4662900
       130.28900        10.893400        5.5066000
       132.39700        10.969100        5.5368400
       134.53800        11.044000        5.5672700
       136.71400        11.120000        5.5978500
       138.92500        11.198300        5.6286000
       141.17200        11.279600        5.6595200
       143.45600        11.365000        5.6906100
       145.77600        11.456200        5.7218700
       148.13400        11.557800        5.7533100
       150.53000        11.682000        5.7648300
       152.96400        11.788800        5.7537100
       155.43900        11.882200        5.7426200
       157.95300        11.971300        5.7315600
       160.50700        12.057100        5.7205100
       163.10300        12.140600        5.7094800
       165.74200        12.222500        5.6984800
       168.42200        12.303200        5.6875000
       171.14600        12.383200        5.6765300
       173.91500        12.463100        5.6655900
       176.72700        12.545600        5.6530100
       179.58600        12.625200        5.6364400
       182.49100        12.702000        5.6199300
       185.44200        12.777700        5.6034500
       188.44200        12.852400        5.5870300
       191.48900        12.926700        5.5706600
       194.58700        13.000600        5.5543400
       197.73400        13.074900        5.5380600
       200.93200        13.149300        5.5201700
       204.18200        13.222900        5.5017200
       207.48500        13.295800        5.4833300
       210.84000        13.368800        5.4650000
       214.25100        13.442100        5.4467400
       217.71600        13.516000        5.4285300
       221.23700        13.590900        5.4103900
       224.81600        13.667400        5.3923000
       228.45200        13.746200        5.3742900
       232.14700        13.828500        5.3563200
       235.90200        13.916900        5.3384200
       239.71700        14.020100        5.3205700
       243.59500        14.137200        5.2670600
       247.53500        14.232000        5.1944300
       251.53800        14.308200        5.1228000
       255.60700        14.376100        5.0521600
       259.74100        14.437500        4.9824900
       263.94200        14.493500        4.9137800
       268.21100        14.545000        4.8460200
       272.54900        14.592400        4.7792000
       276.95700        14.636400        4.7132900
       281.43700        14.677500        4.6483000
       285.98900        14.716400        4.5842000
       290.61500        14.755200        4.5209800
       295.31500        14.792100        4.4508600
       300.09200        14.821900        4.3792200
       304.94500        14.845500        4.3087300
       309.87800        14.864700        4.2393800
       314.89000        14.879900        4.1711400
       319.98300        14.891200        4.1040000
       325.15800        14.899000        4.0379500
       330.41800        14.903200        3.9729600
       335.76200        14.903900        3.9090100
       341.19200        14.901200        3.8460900
       346.71100        14.895200        3.7841900
       352.31900        14.885900        3.7232800
       358.01700        14.873100        3.6629800
       363.80800        14.856700        3.6035000
       369.69200        14.836400        3.5449900
       375.67200        14.812500        3.4874200
       381.74800        14.784700        3.4308000
       387.92200        14.753100        3.3750800
       394.19700        14.717600        3.3202800
       400.57300        14.678100        3.2663600
       407.05200        14.634800        3.2133200
       413.63500        14.588000        3.1611400
       420.32600        14.543000        3.1058700
       427.12400        14.486900        3.0425900
       434.03200        14.418600        2.9805900
       441.05200        14.341200        2.9198600
       448.18600        14.254600        2.8603700
       455.43500        14.158300        2.8020900
       462.80200        14.051700        2.7450000
       470.28700        13.933600        2.6890700
       477.89400        13.801000        2.6342800
       485.62300        13.654600        2.5860000
       493.47800        13.497700        2.5416600
       501.45900        13.327200        2.4980700
       509.57000        13.139900        2.4552400
       517.81200        12.932900        2.4131400
       526.18700        12.702500        2.3717600
       534.69800        12.443900        2.3311500
       543.34600        12.152600        2.2929200
       552.13400        11.822000        2.2553400
       561.06500        11.441400        2.2164600
       570.13900        10.995000        2.1773900
       579.36100        10.462000        2.1393400
       588.73200        9.8110000        2.1021200
       598.25400        8.9878900        2.0656500
       607.93000        7.8916000        2.0298100
       617.76300        6.2971900        1.9946000
       627.75500        3.5084400        1.9599900
       637.90800       -8.4276100        1.9259900
       638.60000       -18.057400        1.9237100
       638.80000       -18.042600        16.598400
       648.22600        3.5673600        16.319400
       658.71100        7.2581900        16.019200
       669.36500        9.4195500        15.724500
       680.19100        10.960100        15.435200
       691.19300        12.155000        15.151200
       702.37200        13.126100        14.872500
       713.73300        13.932700        14.587000
       725.27700        14.609300        14.297600
       737.00800        15.004600        13.967000
       748.92800        15.244400        13.967100
       761.04200        15.695800        14.206800
       773.35100        16.381700        14.450600
       785.85900        17.272100        14.399800
       798.57000        18.029600        14.105000
       811.48600        18.591800        13.779500
       824.61100        19.074500        13.461700
       837.94900        19.489600        13.151300
       851.50200        19.857200        12.861000
       865.27400        20.188300        12.590300
       879.26900        20.499900        12.336900
       893.49100        20.797300        12.088700
       907.94300        21.077400        11.845600
       922.62800        21.346900        11.607300
       937.55100        21.600200        11.363600
       952.71500        21.835600        11.122500
       968.12400        22.054600        10.884300
       983.78300        22.259100        10.651300
       999.69500        22.451600        10.422700
       1015.8600        22.635000        10.198500
       1032.2900        22.808000        9.9746200
       1048.9900        22.970900        9.7522400
       1065.9600        23.121300        9.5312000
       1083.2000        23.259400        9.3150500
       1100.7200        23.388100        9.1038300
       1118.5200        23.508100        8.8974300
       1136.6100        23.620400        8.6957700
       1155.0000        23.725600        8.4986400
       1173.6800        23.824200        8.3059400
       1192.6600        23.916800        8.1176900
       1211.9500        24.004000        7.9337000
       1231.5500        24.087200        7.7538500
       1251.4700        24.166000        7.5762600
       1271.7200        24.240300        7.4008900
       1292.2900        24.308700        7.2273500
       1313.1900        24.370900        7.0578500
       1334.4300        24.428500        6.8923100
       1356.0100        24.482000        6.7306500
       1377.9400        24.531600        6.5727300
       1400.2300        24.577700        6.4185200
       1422.8800        24.620800        6.2679800
       1445.8900        24.661600        6.1209900
       1469.2800        24.700200        5.9767600
       1493.0400        24.738000        5.8348900
       1517.1900        24.772100        5.6921600
       1541.7300        24.801200        5.5523600
       1566.6700        24.826800        5.4160100
       1592.0100        24.849600        5.2831400
       1617.7600        24.870000        5.1534700
       1643.9200        24.888100        5.0268400
       1670.5100        24.904300        4.9034300
       1697.5300        24.919100        4.7831000
       1724.9900        24.933800        4.6657500
       1752.8900        24.947000        4.5475800
       1781.2400        24.957300        4.4311700
       1810.0500        24.964400        4.3168500
       1839.3200        24.969000        4.2054800
       1869.0700        24.971500        4.0970200
       1899.3000        24.972300        3.9914600
       1930.0200        24.971800        3.8885400
       1961.2400        24.970000        3.7882300
       1992.9600        24.966200        3.6904500
       2025.2000        24.963100        3.5970700
       2057.9500        24.959600        3.5026800
       2091.2400        24.954200        3.4103700
       2125.0600        24.947100        3.3201100
       2159.4300        24.938800        3.2322100
       2194.3600        24.929600        3.1464000
       2229.8500        24.919400        3.0625200
       2265.9200        24.908100        2.9807000
       2302.5700        24.896000        2.9008800
       2339.8100        24.883100        2.8230200
       2377.6600        24.869300        2.7470500
       2416.1100        24.854800        2.6730000
       2455.1900        24.839700        2.6007700
       2494.9000        24.823800        2.5303800
       2535.2600        24.807400        2.4617500
       2576.2600        24.790300        2.3948600
       2617.9300        24.772800        2.3296900
       2660.2700        24.754700        2.2661800
       2703.3000        24.736100        2.2043300
       2747.0300        24.717000        2.1440600
       2791.4600        24.697500        2.0853600
       2836.6100        24.677600        2.0282000
       2882.4900        24.657300        1.9725600
       2929.1100        24.636600        1.9183700
       2976.4800        24.615500        1.8656200
       3024.6300        24.594100        1.8142700
       3073.5500        24.572400        1.7642700
       3123.2600        24.550300        1.7156300
       3173.7800        24.527800        1.6682900
       3225.1100        24.505000        1.6222400
       3277.2700        24.482000        1.5774400
       3330.2800        24.458500        1.5338500
       3384.1500        24.434800        1.4914700
       3438.8800        24.410700        1.4502200
       3494.5000        24.386300        1.4101100
       3551.0200        24.361600        1.3711000
       3608.4600        24.336400        1.3331600
       3666.8200        24.310900        1.2962800
       3726.1300        24.285000        1.2604400
       3786.4000        24.258600        1.2255700
       3847.6400        24.231800        1.1916900
       3909.8700        24.204500        1.1587800
       3973.1100        24.176700        1.1267600
       4037.3800        24.148300        1.0956200
       4102.6800        24.119200        1.0654000
       4169.0300        24.089500        1.0360100
       4236.4600        24.059000        1.0074700
       4304.9800        24.027800       0.97972100
       4374.6200        23.995600       0.95274500
       4445.3700        23.962400       0.92658500
       4517.2700        23.928100       0.90113800
       4590.3300        23.892500       0.87641200
       4664.5800        23.855600       0.85241200
       4740.0300        23.817100       0.82908600
       4816.6900        23.776800       0.80645300
       4894.6000        23.734500       0.78445600
       4973.7700        23.690000       0.76312300
       5054.2100        23.642800       0.74234500
       5135.9600        23.592500       0.72221300
       5219.0300        23.538800       0.70265900
       5303.4400        23.481000       0.68367400
       5389.2200        23.418200       0.66523600
       5476.3900        23.349600       0.64733900
       5564.9700        23.273900       0.62996400
       5654.9800        23.189400       0.61309300
       5746.4400        23.093800       0.59671700
       5839.3900        22.984000       0.58082400
       5933.8300        22.855100       0.56538900
       6029.8100        22.699700       0.55041400
       6127.3300        22.505300       0.53588100
       6226.4400        22.248400       0.52177500
       6327.1500        21.876100       0.50808100
       6429.4800        21.222500       0.49478800
       6533.4800        18.082500       0.48189100
       6538.9000        13.757300       0.48123400
       6539.1000        13.757800        3.8759000
       6639.1500        21.309700        3.7917000
       6746.5400        22.153700        3.7047200
       6855.6500        22.653300        3.6189700
       6966.5400        23.011400        3.5343800
       7079.2200        23.290800        3.4510700
       7193.7200        23.519500        3.3689900
       7310.0700        23.712300        3.2883100
       7428.3100        23.878500        3.2089200
       7548.4500        24.023600        3.1307600
       7670.5400        24.151900        3.0540400
       7794.6100        24.266300        2.9787100
       7920.6800        24.369000        2.9047100
       8048.7900        24.461700        2.8320500
       8178.9800        24.545600        2.7608200
       8311.2600        24.621900        2.6909400
       8445.6900        24.691500        2.6224800
       8582.2900        24.755000        2.5553100
       8721.1100        24.813200        2.4894800
       8862.1600        24.866400        2.4250500
       9005.5000        24.915200        2.3620300
       9151.1600        24.960000        2.3003100
       9299.1700        25.001100        2.2398600
       9449.5800        25.038900        2.1807600
       9602.4200        25.073500        2.1229500
       9757.7300        25.105200        2.0665300
       9915.5500        25.134400        2.0112300
       10075.900        25.161100        1.9572500
       10238.900        25.185500        1.9045200
       10404.500        25.207800        1.8530000
       10572.800        25.228100        1.8026900
       10743.800        25.246600        1.7535700
       10917.600        25.263400        1.7056200
       11094.200        25.278600        1.6588200
       11273.600        25.292400        1.6131500
       11455.900        25.304800        1.5685900
       11641.200        25.315800        1.5251200
       11829.500        25.325700        1.4827300
       12020.800        25.334500        1.4413800
       12215.300        25.342200        1.4010800
       12412.800        25.348900        1.3617800
       12613.600        25.354700        1.3234900
       12817.600        25.359700        1.2861600
       13025.000        25.363800        1.2498000
       13235.600        25.367200        1.2143600
       13449.700        25.369900        1.1798500
       13667.200        25.371900        1.1462300
       13888.300        25.373400        1.1134900
       14112.900        25.374200        1.0816100
       14341.200        25.374600        1.0505700
       14573.100        25.374400        1.0203600
       14808.900        25.373800       0.99094200
       15048.400        25.372800       0.96231300
       15291.800        25.371300       0.93445400
       15539.100        25.369500       0.90734400
       15790.400        25.367400       0.88096600
       16045.800        25.364900       0.85530500
       16305.400        25.362200       0.83034100
       16569.100        25.359100       0.80606000
       16837.100        25.355900       0.78244400
       17109.400        25.352400       0.75947800
       17386.100        25.348600       0.73714600
       17667.400        25.344700       0.71543100
       17953.100        25.340700       0.69432000
       18243.500        25.336400       0.67379600
       18538.600        25.332100       0.65384600
       18838.400        25.327600       0.63445500
       19143.100        25.322900       0.61560800
       19452.700        25.318200       0.59729200
       19767.400        25.313400       0.57949300
       20087.100        25.308500       0.56219800
       20412.000        25.303600       0.54539300
       20742.100        25.298500       0.52906700
       21077.600        25.293500       0.51320600
       21418.500        25.288300       0.49779900
       21765.000        25.283200       0.48283300
       22117.000        25.278000       0.46829600
       22474.700        25.272800       0.45417900
       22838.200        25.267600       0.44046800
       23207.600        25.262400       0.42715300
       23583.000        25.257200       0.41422400
       23964.400        25.252000       0.40167000
       24352.000        25.246800       0.38948100
       24745.900        25.241600       0.37764700
       25146.200        25.236400       0.36615800
       25552.900        25.231300       0.35500600
       25966.200        25.226200       0.34418000
       26386.100        25.221100       0.33367100
       26812.900        25.216000       0.32347100
       27246.600        25.211000       0.31357200
       27687.300        25.206000       0.30396500
       28135.100        25.201100       0.29464100
       28590.200        25.196200       0.28559300
       29052.600        25.191500       0.27681400
       29522.500        25.187500       0.26829500
       30000.000        25.179500       0.26002900
       30400.000        25.176800       0.25744400
       30800.000        25.173100       0.25093000
       31200.000        25.169400       0.24466100
       31500.000        25.166700       0.24011400
       31900.000        25.163300       0.23424400
       32300.000        25.159900       0.22858800
       32600.000        25.157300       0.22448000
       33000.000        25.153900       0.21917400
       33400.000        25.150800       0.21403000
       33800.000        25.147600       0.20906600
       34100.000        25.145300       0.20545600
       34500.000        25.142100       0.20078600
       34900.000        25.139300       0.19627500
       35300.000        25.136400       0.19189600
       35700.000        25.133500       0.18765600
       36030.000        25.131100       0.18426300
       36500.000        25.127900       0.17958800
       37000.000        25.124500       0.17480700
       37500.000        25.121300       0.17021600
       38000.000        25.118100       0.16580300
       38500.000        25.115000       0.16154300
       39000.000        25.112000       0.15744600
       39500.000        25.109100       0.15350200
       40000.000        25.106200       0.14970600
       40400.000        25.104000       0.14675000
       40800.000        25.101800       0.14388000
       41100.000        25.100200       0.14178300
       41500.000        25.098000       0.13905700
       42300.000        25.094000       0.13383600
       43000.000        25.090400       0.12950500
       43800.000        25.086700       0.12478700
       44500.000        25.083400       0.12086700
       45300.000        25.079900       0.11659200
       46000.000        25.076900       0.11301000
       46500.000        25.074800       0.11055000
       47000.000        25.072700       0.10817000
       47500.000        25.070800       0.10586500
       48000.000        25.068800       0.10363300
       48500.000        25.066900       0.10146100
       49000.000        25.065000      0.099355300
       49500.000        25.063200      0.097314400
       50000.000        25.061400      0.095335200
       50500.000        25.059700      0.093403200
       51000.000        25.058000      0.091528800
       51500.000        25.056300      0.089709700
       52000.000        25.054600      0.087943800
       52500.000        25.053000      0.086229200
       53000.000        25.051500      0.084563700
       53500.000        25.049900      0.082945500
       54000.000        25.048300      0.081373000
       54500.000        25.046900      0.079844400
       55000.000        25.045400      0.078358000
       56000.000        25.042600      0.075495400
       56800.000        25.040400      0.073315700
       57530.000        25.038500      0.071407200
       58000.000        25.037300      0.070217200
       58500.000        25.036000      0.068983200
       59540.000        25.033400      0.066517600
       59800.000        25.032800      0.065921700
       60000.000        25.032300      0.065468600
       60800.000        25.030500      0.063696100
       61500.000        25.028900      0.062202800
       62300.000        25.027100      0.060559000
       63000.000        25.025600      0.059172900
       64000.000        25.023600      0.057272900
       65000.000        25.021500      0.055462000
       65900.000        25.019800      0.053899700
       66830.000        25.018100      0.052352700
       67400.000        25.017000      0.051436900
       68000.000        25.015900      0.050498300
       69000.000        25.014200      0.048989400
       70000.000        25.012500      0.047546300
       71000.000        25.010900      0.046161000
       72000.000        25.009400      0.044834600
       72800.000        25.008200      0.043813700
       73500.000        25.007100      0.042948400
       74200.000        25.006100      0.042108200
       74960.000        25.005000      0.041223100
       75500.000        25.004300      0.040610900
       76000.000        25.003600      0.040056000
       77110.000        25.002100      0.038863400
       77900.000        25.001100      0.038046400
       78600.000        25.000200      0.037343500
       79300.000        24.999300      0.036659600
       80000.000        24.998500      0.035994100
       80800.000        24.997600      0.035253100
       81500.000        24.996800      0.034623000
       82300.000        24.995900      0.033923100
       83000.000        24.995100      0.033327700
       84000.000        24.994000      0.032503600
       85000.000        24.992900      0.031709200
       86500.000        24.991500      0.030570400
       88000.000        24.990000      0.029491100
       89000.000        24.989100      0.028802600
       90000.000        24.988200      0.028137500
       91500.000        24.986900      0.027180100
       93000.000        24.985700      0.026270000
       94000.000        24.984800      0.025688100
       95000.000        24.984000      0.025125000
       96500.000        24.982900      0.024313900
       98000.000        24.981700      0.023541000
       99000.000        24.981000      0.023045700
       99500.000        24.980700      0.022803800
       100000.00        24.980300      0.022565700
