;  Atomic scattering factors for Nd.
;   
;  Concatenation of data from CXRO <http://www-cxro.lbl.gov>
;  and LLNL <http://www-phys.llnl.gov/V_Div/scattering/asf.html>
;  
;  E (eV) f1 f2
;---------------
       10.000000       -9999.0000       0.24448400
       10.161700       -9999.0000       0.25176600
       10.326100       -9999.0000       0.25926400
       10.493100       -9999.0000       0.26698500
       10.662800       -9999.0000       0.27493600
       10.835300       -9999.0000       0.28312400
       11.010600       -9999.0000       0.29155600
       11.188600       -9999.0000       0.30023900
       11.369600       -9999.0000       0.30918100
       11.553500       -9999.0000       0.31838900
       11.740400       -9999.0000       0.32787200
       11.930300       -9999.0000       0.33763600
       12.123200       -9999.0000       0.34769200
       12.319300       -9999.0000       0.35717700
       12.518600       -9999.0000       0.36620700
       12.721000       -9999.0000       0.37546600
       12.926800       -9999.0000       0.38495900
       13.135900       -9999.0000       0.39469200
       13.348300       -9999.0000       0.40467100
       13.564200       -9999.0000       0.41490300
       13.783600       -9999.0000       0.42429000
       14.006600       -9999.0000       0.43380300
       14.233100       -9999.0000       0.44352900
       14.463300       -9999.0000       0.45347200
       14.697300       -9999.0000       0.46364000
       14.935000       -9999.0000       0.47403400
       15.176500       -9999.0000       0.48548700
       15.422000       -9999.0000       0.49813300
       15.671400       -9999.0000       0.51110700
       15.924900       -9999.0000       0.52442000
       16.182500       -9999.0000       0.53807900
       16.444200       -9999.0000       0.55209400
       16.710200       -9999.0000       0.56647500
       16.980500       -9999.0000       0.58060600
       17.255100       -9999.0000       0.59476800
       17.534200       -9999.0000       0.60927600
       17.817800       -9999.0000       0.62413700
       18.106000       -9999.0000       0.64668400
       18.398900       -9999.0000       0.67101300
       18.696400       -9999.0000       0.70924900
       18.998800       -9999.0000       0.75804000
       19.306100       -9999.0000       0.84845300
       19.618400       -9999.0000        1.0674400
       19.935700       -9999.0000        1.2733200
       20.258200       -9999.0000        1.4637700
       20.585800       -9999.0000        1.6468000
       20.918800       -9999.0000        1.8123700
       21.257100       -9999.0000        1.9945900
       21.600900       -9999.0000        2.3352700
       21.950300       -9999.0000        3.0461200
       22.305300       -9999.0000        3.4901100
       22.666100       -9999.0000        4.1414200
       23.032700       -9999.0000        5.1760500
       23.405300       -9999.0000        6.1611400
       23.783800       -9999.0000        7.1592800
       24.168500       -9999.0000        7.8515800
       24.559400       -9999.0000        8.6108300
       24.956600       -9999.0000        9.8233400
       25.360300       -9999.0000        11.046400
       25.770500       -9999.0000        11.722400
       26.187300       -9999.0000        12.336500
       26.610900       -9999.0000        12.804200
       27.041300       -9999.0000        13.240400
       27.478600       -9999.0000        13.319000
       27.923100       -9999.0000        13.398100
       28.374700       -9999.0000        13.342000
       28.833700       -9999.0000        12.894300
       29.300000        9.3860000        12.461500
       29.773900        9.9214700        12.019600
       30.255500        10.349300        11.589400
       30.744900        10.692200        11.177900
       31.242100        10.961600        10.782600
       31.747500        11.139600        10.401300
       32.260900        11.259500        10.148500
       32.782700        11.408400        9.9206500
       33.313000        11.551500        9.6978900
       33.851800        11.662300        9.4873400
       34.399300        11.773500        9.3362900
       34.955700        11.900800        9.1876500
       35.521100        12.034400        9.0413800
       36.095600        12.172300        8.8865700
       36.679400        12.296000        8.7267600
       37.272700        12.411500        8.5698300
       37.875500        12.521400        8.4125000
       38.488200        12.626600        8.2562600
       39.110700        12.740800        8.0888300
       39.743200        12.821400        7.8908700
       40.386100        12.868500        7.6977400
       41.039300        12.884900        7.5093400
       41.703100        12.871300        7.3478000
       42.377600        12.843100        7.1979500
       43.063000        12.767300        7.0511700
       43.759500        12.694400        7.0290000
       44.467300        12.671800        7.0099800
       45.186500        12.672400        6.9910100
       45.917400        12.690600        6.9721100
       46.660000        12.720900        6.9378500
       47.414700        12.746000        6.8979800
       48.181600        12.769500        6.8583400
       48.960900        12.792200        6.8189300
       49.752800        12.813600        6.7797400
       50.557600        12.833000        6.7407800
       51.375300        12.848600        6.7050900
       52.206200        12.866200        6.6727100
       53.050600        12.884100        6.6404900
       53.908700        12.901500        6.6084200
       54.780600        12.918000        6.5763300
       55.666700        12.932800        6.5439500
       56.567000        12.945800        6.5117400
       57.482000        12.956700        6.4796800
       58.411700        12.965400        6.4477800
       59.356400        12.971600        6.4160500
       60.316500        12.975300        6.3844600
       61.292100        12.976100        6.3530300
       62.283400        12.973800        6.3217600
       63.290800        12.968400        6.2906400
       64.314500        12.959400        6.2596700
       65.354700        12.946800        6.2288600
       66.411800        12.930200        6.1982000
       67.485900        12.909400        6.1676900
       68.577500        12.884000        6.1373200
       69.686700        12.853700        6.1071100
       70.813800        12.818400        6.0775000
       71.959100        12.777900        6.0480600
       73.123000        12.731700        6.0187700
       74.305700        12.679600        5.9896200
       75.507600        12.620900        5.9606200
       76.728900        12.555500        5.9317600
       77.969900        12.482900        5.9030300
       79.231000        12.402900        5.8744400
       80.512500        12.315800        5.8459900
       81.814700        12.223700        5.8176800
       83.138000        12.133100        5.7759300
       84.482700        12.013800        5.7185400
       85.849100        11.871300        5.6617300
       87.237700        11.707500        5.6054800
       88.648700        11.521800        5.5497900
       90.082500        11.312800        5.4946400
       91.539500        11.080400        5.4400500
       93.020100        10.832200        5.3789900
       94.524600        10.531400        5.2912500
       96.053500        10.155200        5.2121600
       97.607100        9.7415900        5.1742100
       99.185800        9.2891700        5.1365400
       100.79000        8.7753500        5.1016900
       102.42000        8.1935700        5.0756200
       104.07700        7.5231900        5.0496900
       105.76000        6.7296900        5.0239000
       107.47100        5.7739300        5.0194600
       109.20900        4.5849800        5.0224600
       110.97500        2.8331000        5.0254600
       112.77000       0.85760000        6.3499400
       114.59400      0.034953000        7.4734900
       116.44800      -0.67578600        7.6935700
       118.33100       -4.0439800        7.1241600
       120.24500       -10.208200        10.002800
       122.19000       -14.352900        16.517000
       124.16600       -15.915200        25.872900
       126.17500       -11.685500        35.718000
       128.21500       -6.2616100        40.446900
       130.28900       0.38213800        45.801800
       132.39700        8.6697000        47.349300
       134.53800        16.275500        46.223100
       136.71400        21.628200        43.885100
       138.92500        26.187300        40.919500
       141.17200        29.200100        37.513400
       143.45600        31.265300        34.390600
       145.77600        32.692000        31.527900
       148.13400        33.652800        28.976200
       150.53000        34.341400        26.674400
       152.96400        34.793000        24.555400
       155.43900        35.042800        22.604800
       157.95300        35.108400        20.809200
       160.50700        35.014300        19.222800
       163.10300        34.864800        17.799900
       165.74200        34.658700        16.482300
       168.42200        34.378200        15.262200
       171.14600        34.013800        14.132500
       173.91500        33.521900        13.154400
       176.72700        33.084400        12.351600
       179.58600        32.652300        11.597800
       182.49100        32.181900        10.890000
       185.44200        31.575100        10.289200
       188.44200        31.083800        9.9433400
       191.48900        30.680400        9.6090900
       194.58700        30.318300        9.2860700
       197.73400        29.969700        8.9739100
       200.93200        29.616300        8.6722500
       204.18200        29.225700        8.3807200
       207.48500        28.726600        8.2202500
       210.84000        28.351400        8.2032000
       214.25100        28.078900        8.1861900
       217.71600        27.848100        8.1692100
       221.23700        27.648600        8.1522700
       224.81600        27.473100        8.1353600
       228.45200        27.316500        8.1184900
       232.14700        27.174800        8.1016500
       235.90200        27.044800        8.0848500
       239.71700        26.923700        8.0680800
       243.59500        26.808800        8.0513400
       247.53500        26.697200        8.0346500
       251.53800        26.585600        8.0179900
       255.60700        26.468600        8.0013600
       259.74100        26.309600        7.9885600
       263.94200        26.170700        8.0599300
       268.21100        26.071300        8.1319200
       272.54900        25.991000        8.2045700
       276.95700        25.924000        8.2778600
       281.43700        25.867200        8.3518000
       285.98900        25.817900        8.4264100
       290.61500        25.773400        8.5016800
       295.31500        25.719800        8.5776200
       300.09200        25.671800        8.6881100
       304.94500        25.649800        8.8096000
       309.87800        25.646000        8.9327900
       314.89000        25.657300        9.0577100
       319.98300        25.683000        9.1843700
       325.15800        25.723300        9.3128000
       330.41800        25.780000        9.4430300
       335.76200        25.857200        9.5750800
       341.19200        25.975800        9.6964900
       346.71100        26.086200        9.7742700
       352.31900        26.191900        9.8526600
       358.01700        26.302700        9.9316900
       363.80800        26.428100        10.011300
       369.69200        26.596700        10.060400
       375.67200        26.736900        10.059900
       381.74800        26.846800        10.059400
       387.92200        26.946300        10.058900
       394.19700        27.037400        10.058400
       400.57300        27.121000        10.057800
       407.05200        27.197000        10.057300
       413.63500        27.263400        10.056800
       420.32600        27.300500        10.071800
       427.12400        27.354600        10.119700
       434.03200        27.429000        10.167800
       441.05200        27.512100        10.216200
       448.18600        27.604200        10.264700
       455.43500        27.706200        10.313600
       462.80200        27.845600        10.360800
       470.28700        27.976300        10.349100
       477.89400        28.082900        10.337500
       485.62300        28.180200        10.325800
       493.47800        28.271500        10.314200
       501.45900        28.358300        10.302500
       509.57000        28.441600        10.290900
       517.81200        28.522200        10.279400
       526.18700        28.601000        10.267800
       534.69800        28.678700        10.256200
       543.34600        28.764200        10.243900
       552.13400        28.843500        10.213800
       561.06500        28.912100        10.183800
       570.13900        28.975200        10.153800
       579.36100        29.034100        10.123900
       588.73200        29.089900        10.094200
       598.25400        29.144100        10.064500
       607.93000        29.198800        10.034900
       617.76300        29.262900        10.005300
       627.75500        29.354100        9.9532200
       637.90800        29.408700        9.8465800
       648.22600        29.430100        9.7410900
       658.71100        29.429900        9.6367300
       669.36500        29.411400        9.5334800
       680.19100        29.376300        9.4313500
       691.19300        29.325500        9.3303100
       702.37200        29.263600        9.2303400
       713.73300        29.196200        9.1200400
       725.27700        29.093700        8.9865900
       737.00800        28.956500        8.8551000
       748.92800        28.788000        8.7255300
       761.04200        28.587300        8.5978700
       773.35100        28.352000        8.4720600
       785.85900        28.078500        8.3481000
       798.57000        27.761300        8.2259500
       811.48600        27.390700        8.1055900
       824.61100        26.961800        8.0024400
       837.94900        26.478000        7.9094300
       851.50200        25.926300        7.8161000
       865.27400        25.282900        7.7221300
       879.26900        24.519100        7.6277500
       893.49100        23.596300        7.5347000
       907.94300        22.453300        7.4427300
       922.62800        20.984700        7.3518200
       937.55100        18.985300        7.2619000
       952.71500        15.966800        7.1732000
       968.12400        10.146100        7.0856700
       980.30000       -25.827300        7.0182300
       980.50000       -25.817400        30.721900
       983.78300       0.85930400        30.655400
       999.69500        14.348800        30.338500
       1015.8600        19.216300        30.024900
       1032.2900        22.324100        29.714400
       1048.9900        24.636800        29.402600
       1065.9600        26.484300        29.089400
       1083.2000        28.023200        28.779100
       1100.7200        29.341900        28.472300
       1118.5200        30.492700        28.168700
       1136.6100        31.509100        27.868400
       1155.0000        32.412900        27.571300
       1173.6800        33.217800        27.277300
       1192.6600        33.930800        26.986500
       1211.9500        34.556000        26.698800
       1231.5500        35.025300        26.414100
       1251.4700        35.404400        26.259600
       1271.7200        35.700000        26.246000
       1292.2900        36.078600        26.406600
       1313.1900        36.579200        26.568500
       1334.4300        37.121900        26.731300
       1356.0100        37.702100        26.895100
       1377.9400        38.318800        27.059800
       1400.2300        38.975200        27.225500
       1422.8800        39.678600        27.392500
       1445.8900        40.468200        27.560200
       1469.2800        41.342600        27.670300
       1493.0400        42.405600        27.691000
       1517.1900        43.393600        27.335500
       1541.7300        44.131100        26.932700
       1566.6700        44.591000        26.535500
       1592.0100        45.224200        26.685400
       1617.7600        46.279700        26.649600
       1643.9200        47.211400        26.092700
       1670.5100        47.930800        25.547600
       1697.5300        48.555000        25.013900
       1724.9900        49.117900        24.491100
       1752.8900        49.629800        23.968000
       1781.2400        50.095500        23.452400
       1810.0500        50.520100        22.945400
       1839.3200        50.910100        22.449100
       1869.0700        51.270100        21.963600
       1899.3000        51.603800        21.488800
       1930.0200        51.913900        21.024000
       1961.2400        52.203200        20.569200
       1992.9600        52.470000        20.124300
       2025.2000        52.726300        19.697200
       2057.9500        52.969600        19.264500
       2091.2400        53.193200        18.839300
       2125.0600        53.399900        18.423000
       2159.4300        53.592000        18.014500
       2194.3600        53.770400        17.614200
       2229.8500        53.935900        17.221500
       2265.9200        54.089200        16.836800
       2302.5700        54.231100        16.459800
       2339.8100        54.362500        16.090700
       2377.6600        54.483900        15.728600
       2416.1100        54.595100        15.373900
       2455.1900        54.697400        15.027000
       2494.9000        54.790900        14.687000
       2535.2600        54.876500        14.354600
       2576.2600        54.954500        14.028600
       2617.9300        55.024900        13.709700
       2660.2700        55.088300        13.397200
       2703.3000        55.145000        13.091600
       2747.0300        55.195100        12.792200
       2791.4600        55.239100        12.499400
       2836.6100        55.277200        12.212800
       2882.4900        55.309600        11.932400
       2929.1100        55.336500        11.658000
       2976.4800        55.358300        11.389800
       3024.6300        55.375100        11.127100
       3073.5500        55.387100        10.870300
       3123.2600        55.394600        10.619100
       3173.7800        55.397400        10.373000
       3225.1100        55.395700        10.132500
       3277.2700        55.389700        9.8973400
       3330.2800        55.379600        9.6673000
       3384.1500        55.365400        9.4422700
       3438.8800        55.347100        9.2222900
       3494.5000        55.324900        9.0071100
       3551.0200        55.298700        8.7967200
       3608.4600        55.268700        8.5909400
       3666.8200        55.234800        8.3897200
       3726.1300        55.196900        8.1930300
       3786.4000        55.155200        8.0005700
       3847.6400        55.109500        7.8124600
       3909.8700        55.059600        7.6285200
       3973.1100        55.005700        7.4487500
       4037.3800        54.947600        7.2728600
       4102.6800        54.885000        7.1009200
       4169.0300        54.817800        6.9328200
       4236.4600        54.745800        6.7684500
       4304.9800        54.668700        6.6078100
       4374.6200        54.586300        6.4506800
       4445.3700        54.498100        6.2970900
       4517.2700        54.403600        6.1468300
       4590.3300        54.302400        6.0000200
       4664.5800        54.193900        5.8564200
       4740.0300        54.077100        5.7160800
       4816.6900        53.951500        5.5788600
       4894.6000        53.815700        5.4447000
       4973.7700        53.668600        5.3133900
       5054.2100        53.508300        5.1851400
       5135.9600        53.332900        5.0597300
       5219.0300        53.139900        4.9371300
       5303.4400        52.925900        4.8172400
       5389.2200        52.686500        4.6999100
       5476.3900        52.415700        4.5852200
       5564.9700        52.105000        4.4731300
       5654.9800        51.742200        4.3635400
       5746.4400        51.308100        4.2563400
       5839.3900        50.770000        4.1515200
       5933.8300        50.065700        4.0490200
       6029.8100        49.049700        3.9487500
       6127.3300        47.204400        3.8508100
       6207.8000        31.748700        3.7729700
       6208.0000        31.749800        11.053100
       6226.4400        43.875900        10.992300
       6327.1500        48.126100        10.669100
       6429.4800        49.330000        10.355700
       6533.4800        49.784000        10.051400
       6639.1500        49.522100        9.7560500
       6721.4000        42.202200        9.5353000
       6721.6000        42.203500        13.164200
       6746.5400        48.703100        13.076600
       6855.6500        51.006200        12.703900
       6966.5400        51.855600        12.341900
       7079.2200        52.008000        11.990200
       7125.9000        49.053300        11.849100
       7126.1000        49.056200        13.546500
       7193.7200        52.804300        13.365900
       7310.0700        53.869300        13.064500
       7428.3100        54.594300        12.767400
       7548.4500        55.176700        12.474400
       7670.5400        55.670300        12.185500
       7794.6100        56.099800        11.901300
       7920.6800        56.479800        11.621800
       8048.7900        56.819700        11.346500
       8178.9800        57.125400        11.075800
       8311.2600        57.402300        10.809900
       8445.6900        57.654000        10.549000
       8582.2900        57.883700        10.292500
       8721.1100        58.093500        10.040600
       8862.1600        58.285500        9.7936500
       9005.5000        58.461500        9.5514600
       9151.1600        58.623000        9.3140800
       9299.1700        58.771200        9.0811500
       9449.5800        58.907200        8.8530400
       9602.4200        59.032000        8.6296500
       9757.7300        59.146400        8.4109200
       9915.5500        59.251400        8.1970300
       10075.900        59.347800        7.9873900
       10238.900        59.435700        7.7822700
       10404.500        59.516000        7.5816200
       10572.800        59.589100        7.3853900
       10743.800        59.655600        7.1935300
       10917.600        59.716000        7.0059900
       11094.200        59.770500        6.8227100
       11273.600        59.819600        6.6436200
       11455.900        59.863700        6.4686800
       11641.200        59.903000        6.2978100
       11829.500        59.937800        6.1309600
       12020.800        59.968500        5.9680500
       12215.300        59.995400        5.8090300
       12412.800        60.018500        5.6538400
       12613.600        60.038200        5.5023900
       12817.600        60.054800        5.3546300
       13025.000        60.068300        5.2104900
       13235.600        60.079000        5.0699100
       13449.700        60.087000        4.9328100
       13667.200        60.092600        4.7991200
       13888.300        60.095800        4.6687900
       14112.900        60.096900        4.5417300
       14341.200        60.095900        4.4179000
       14573.100        60.093100        4.2972200
       14808.900        60.088400        4.1796200
       15048.400        60.082100        4.0650500
       15291.800        60.074200        3.9534300
       15539.100        60.064800        3.8447000
       15790.400        60.054100        3.7388000
       16045.800        60.042100        3.6356600
       16305.400        60.029000        3.5352300
       16569.100        60.014700        3.4374400
       16837.100        59.999300        3.3422400
       17109.400        59.983000        3.2495600
       17386.100        59.965800        3.1593400
       17667.400        59.947800        3.0715300
       17953.100        59.928900        2.9860700
       18243.500        59.909400        2.9029000
       18538.600        59.889100        2.8219700
       18838.400        59.868200        2.7432300
       19143.100        59.846800        2.6666200
       19452.700        59.824700        2.5920900
       19767.400        59.802200        2.5195900
       20087.100        59.779100        2.4490700
       20412.000        59.755600        2.3804800
       20742.100        59.731700        2.3137700
       21077.600        59.707300        2.2488900
       21418.500        59.682600        2.1858000
       21765.000        59.657400        2.1244600
       22117.000        59.632000        2.0648100
       22474.700        59.606100        2.0068100
       22838.200        59.580000        1.9504300
       23207.600        59.553500        1.8956200
       23583.000        59.526700        1.8423300
       23964.400        59.499500        1.7905300
       24352.000        59.472000        1.7401900
       24745.900        59.444200        1.6912500
       25146.200        59.416000        1.6436900
       25552.900        59.387500        1.5974700
       25966.200        59.358500        1.5525500
       26386.100        59.329200        1.5088900
       26812.900        59.299400        1.4664700
       27246.600        59.269100        1.4252500
       27687.300        59.238400        1.3852000
       28135.100        59.207000        1.3462900
       28590.200        59.175100        1.3084800
       29052.600        59.142500        1.2717500
       29522.500        59.109100        1.2360600
       30000.000        59.074900        1.2013900
       30400.000        58.986900        1.1472800
       30800.000        58.958400        1.1206100
       31200.000        58.929100        1.0948900
       31500.000        58.907200        1.0762000
       31900.000        58.877200        1.0520400
       32300.000        58.846700        1.0287100
       32600.000        58.823500        1.0117400
       33000.000        58.791800       0.98977700
       33400.000        58.759500       0.96849400
       33800.000        58.726200       0.94791300
       34100.000        58.700600       0.93292000
       34500.000        58.665500       0.91349600
       34900.000        58.629300       0.89469300
       35300.000        58.591700       0.87642600
       35700.000        58.552600       0.85871300
       36030.000        58.519000       0.84451400
       36300.000        58.490600       0.83325300
       36500.000        58.468900       0.82491200
       36800.000        58.435400       0.81285900
       37000.000        58.412300       0.80482300
       37300.000        58.376300       0.79322000
       37500.000        58.351500       0.78548400
       37800.000        58.312700       0.77430700
       38000.000        58.285800       0.76685600
       38300.000        58.243600       0.75608500
       38500.000        58.214100       0.74890400
       38800.000        58.167700       0.73852000
       39000.000        58.135100       0.73159700
       39300.000        58.083400       0.72158000
       39500.000        58.046800       0.71490200
       39800.000        57.988400       0.70523600
       39900.000        57.967900       0.70201400
       40000.000        57.946800       0.69879200
       40150.000        57.914000       0.69409200
       40300.000        57.879600       0.68939200
       40400.000        57.855700       0.68625800
       40500.000        57.831100       0.68312500
       40650.000        57.792500       0.67858600
       40800.000        57.751900       0.67404700
       40900.000        57.723400       0.67102100
       41000.000        57.693900       0.66799500
       41150.000        57.647200       0.66361000
       41300.000        57.597400       0.65922500
       41400.000        57.562200       0.65630100
       41500.000        57.525400       0.65337800
       41570.000        57.498400       0.65140000
       41650.000        57.466400       0.64914000
       41720.000        57.437200       0.64716200
       41800.000        57.402400       0.64490100
       41900.000        57.356500       0.64207600
       42000.000        57.307700       0.63925000
       42100.000        57.255600       0.63651100
       42200.000        57.199600       0.63377200
       42300.000        57.139200       0.63103400
       42350.000        57.107200       0.62966400
       42400.000        57.073700       0.62829500
       42450.000        57.038800       0.62696200
       42500.000        57.002300       0.62562800
       42550.000        56.963900       0.62429500
       42600.000        56.923600       0.62296100
       42650.000        56.881100       0.62162800
       42700.000        56.836200       0.62029500
       42750.000        56.788600       0.61896100
       42800.000        56.738000       0.61762800
       42850.000        56.684000       0.61634600
       42900.000        56.626000       0.61506400
       42950.000        56.563600       0.61378300
       43000.000        56.496000       0.61250100
       43020.000        56.467300       0.61198800
       43050.000        56.422300       0.61121900
       43070.000        56.390800       0.61070600
       43100.000        56.341200       0.60993700
       43120.000        56.306400       0.60942400
       43150.000        56.251400       0.60865500
       43170.000        56.212500       0.60814300
       43200.000        56.150500       0.60737300
       43230.000        56.083600       0.60660400
       43250.000        56.035800       0.60609200
       43270.000        55.985100       0.60557900
       43300.000        55.902800       0.60481000
       43320.000        55.843100       0.60429700
       43335.000        55.795400       0.60391200
       43350.000        55.744900       0.60352800
       43365.000        55.691100       0.60314300
       43380.000        55.633800       0.60275900
       43390.000        55.593300       0.60250200
       43400.000        55.550800       0.60224600
       43415.000        55.482800       0.60186200
       43430.000        55.408900       0.60147700
       43440.000        55.355900       0.60122100
       43450.000        55.299400       0.60096400
       43458.000        55.251400       0.60075900
       43465.000        55.207000       0.60058000
       43473.000        55.153400       0.60037500
       43480.000        55.103700       0.60019500
       43490.000        55.027300       0.59993900
       43500.000        54.943400       0.59968200
       43505.000        54.898300       0.59955400
       43510.000        54.850700       0.59942600
       43515.000        54.800300       0.59929800
       43520.000        54.746900       0.59917000
       43528.000        54.653900       0.59896500
       43535.000        54.563600       0.59878500
       43539.000        54.507600       0.59868300
       43543.000        54.447700       0.59858000
       43547.000        54.383400       0.59847800
       43550.000        54.331900       0.59840100
       43554.000        54.258100       0.59829800
       43558.000        54.177600       0.59819600
       43562.000        54.089100       0.59809300
       43565.000        54.016200       0.59801600
       43569.000        53.908800       0.59791400
       43573.000        53.786300       0.59781100
       43574.500        53.735800       0.59777300
       43576.000        53.681900       0.59773400
       43578.000        53.604600       0.59768300
       43580.000        53.519700       0.59763200
       43581.500        53.451100       0.59759300
       43583.000        53.375900       0.59755500
       43584.000        53.322100       0.59752900
       43585.000        53.264600       0.59750300
       43586.500        53.171200       0.59746500
       43588.000        53.066400       0.59742600
       43589.000        52.988900       0.59740100
       43590.000        52.903900       0.59737500
       43591.500        52.759500       0.59733700
       43593.000        52.586400       0.59729800
       43594.000        52.449400       0.59727300
       43594.500        52.372000       0.59726000
       43595.000        52.287000       0.59724700
       43595.800        52.132600       0.59722600
       43596.500        51.971600       0.59720900
       43597.300        51.745500       0.59718800
       43598.000        51.489600       0.59717000
       43598.600        51.201700       0.59715500
       43599.200        50.799700       0.59713900
       43599.800        50.166200       0.59712400
       43600.500        48.686700       0.59710600
       43600.500        48.676200       0.59710600
       43600.600        48.987300        1.6430700
       43600.700        49.285700        2.6890400
       43600.900        49.880500        4.7809700
       43601.400        51.326400        10.010800
       43601.800        52.371900        5.3039300
       43602.200        53.261900       0.59706200
       43602.300        52.947600       0.59705900
       43602.500        52.243600       0.59705700
       43603.300        52.264600        5.8436700
       43604.200        52.722300        1.0775800
       43604.700        51.695200        1.7458200
       43605.100        51.526900        2.5820400
       43605.600        51.598000        3.4630700
       43606.000        51.887800        3.4575000
       43606.500        52.299600        3.4506800
       43607.000        52.437600        3.4438200
       43607.500        52.544100        3.4369100
       43608.000        52.633200        3.4300000
       43608.500        52.707500        3.4236100
       43609.000        52.774000        3.4172200
       43609.500        52.833700        3.4108400
       43610.000        52.888200        3.4044500
       43610.500        52.937800        3.3991200
       43611.000        52.983600        3.3937900
       43611.500        53.025700        3.3890300
       43612.000        53.065800        3.3842800
       43612.500        53.102700        3.3813300
       43613.000        53.138000        3.3783800
       43614.000        53.204400        3.3724500
       43615.000        53.262600        3.3686600
       43616.000        53.316400        3.3648800
       43617.000        53.367200        3.3632100
       43618.000        53.413800        3.3615400
       43619.000        53.457200        3.3629200
       43620.000        53.499400        3.3643000
       43621.500        53.558400        3.3681000
       43623.000        53.614600        3.3719000
       43624.000        53.650400        3.3753500
       43625.000        53.685300        3.3787900
       43628.000        53.784800        3.3898500
       43630.000        53.847600        3.3972300
       43633.000        53.937800        3.4057800
       43635.000        53.994500        3.4104400
       43638.000        54.075300        3.4144700
       43640.000        54.126300        3.4156000
       43642.000        54.174600        3.4150100
       43645.000        54.241900        3.4141300
       43648.000        54.304300        3.4110300
       43650.000        54.342900        3.4089600
       43653.000        54.397300        3.4055700
       43655.000        54.431200        3.4033100
       43658.000        54.479100        3.4003300
       43660.000        54.509000        3.3983400
       43665.000        54.578900        3.3954100
       43670.000        54.643100        3.3945600
       43675.000        54.703500        3.3956700
       43680.000        54.760800        3.3967800
       43685.000        54.816100        3.3977500
       43690.000        54.868700        3.3987200
       43695.000        54.918500        3.3990600
       43700.000        54.966400        3.3994000
       43705.000        55.012000        3.3982700
       43710.000        55.054800        3.3971300
       43715.000        55.095600        3.3960000
       43720.000        55.134300        3.3948700
       43727.000        55.185500        3.3944000
       43735.000        55.239800        3.3938600
       43743.000        55.292000        3.3933300
       43750.000        55.335900        3.3928600
       43760.000        55.395400        3.3919000
       43770.000        55.451100        3.3909300
       43780.000        55.503700        3.3899700
       43790.000        55.553400        3.3890000
       43800.000        55.600700        3.3880400
       43810.000        55.645800        3.3870700
       43820.000        55.688700        3.3861000
       43830.000        55.729700        3.3851400
       43845.000        55.788200        3.3835800
       43860.000        55.843200        3.3820200
       43880.000        55.911900        3.3799300
       43900.000        55.976300        3.3778500
       43920.000        56.036600        3.3755000
       43940.000        56.093000        3.3731600
       43960.000        56.146000        3.3708100
       43980.000        56.196100        3.3684700
       43995.000        56.231700        3.3667100
       44010.000        56.265700        3.3649500
       44050.000        56.352000        3.3602600
       44090.000        56.431900        3.3564200
       44130.000        56.506100        3.3525700
       44160.000        56.559200        3.3496900
       44200.000        56.625200        3.3458500
       44240.000        56.686800        3.3408000
       44270.000        56.730600        3.3370100
       44310.000        56.786500        3.3319600
       44350.000        56.838900        3.3269100
       44380.000        56.876200        3.3230300
       44420.000        56.923600        3.3178600
       44460.000        56.968000        3.3126800
       44500.000        57.010700        3.3075100
       44530.000        57.041600        3.3043100
       44570.000        57.081400        3.3000500
       44610.000        57.119400        3.2957900
       44650.000        57.156200        3.2915300
       44720.000        57.217800        3.2847600
       44800.000        57.284300        3.2770300
       44880.000        57.347000        3.2680700
       44950.000        57.399400        3.2602300
       45030.000        57.457500        3.2512700
       45100.000        57.505200        3.2434300
       45180.000        57.556800        3.2344800
       45250.000        57.599900        3.2266400
       45330.000        57.647400        3.2176800
       45400.000        57.686600        3.2098400
       45480.000        57.729100        3.1999500
       45550.000        57.764400        3.1913000
       45630.000        57.803400        3.1814000
       45700.000        57.836200        3.1727500
       45770.000        57.867900        3.1644400
       45850.000        57.902700        3.1549400
       45920.000        57.932000        3.1466200
       46000.000        57.964000        3.1371200
       46150.000        58.021300        3.1214200
       46300.000        58.076000        3.1057200
       46400.000        58.110700        3.0952600
       46500.000        58.144100        3.0847900
       46650.000        58.192300        3.0701800
       46800.000        58.238500        3.0555800
       46900.000        58.268300        3.0458400
       47000.000        58.297400        3.0361000
       47150.000        58.339400        3.0214000
       47300.000        58.379500        3.0067000
       47400.000        58.405400        2.9969000
       47500.000        58.430700        2.9871000
       47650.000        58.467400        2.9723900
       47800.000        58.503200        2.9576900
       47900.000        58.526400        2.9478900
       48000.000        58.548800        2.9380900
       48150.000        58.581100        2.9233400
       48300.000        58.612200        2.9086000
       48400.000        58.632300        2.8987700
       48500.000        58.651900        2.8889400
       48650.000        58.680500        2.8741900
       48800.000        58.708000        2.8594400
       48900.000        58.725900        2.8496100
       49000.000        58.743400        2.8397800
       49300.000        58.793900        2.8110600
       49400.000        58.810100        2.8014900
       49500.000        58.825900        2.7919200
       49650.000        58.848800        2.7776900
       49800.000        58.870900        2.7634700
       49900.000        58.885200        2.7539800
       50000.000        58.899200        2.7445000
       50300.000        58.939500        2.7173800
       50500.000        58.965200        2.6993000
       50800.000        59.002100        2.6728900
       51000.000        59.025500        2.6552900
       51300.000        59.059100        2.6295600
       51500.000        59.080300        2.6124100
       51800.000        59.111000        2.5879100
       52000.000        59.130700        2.5715700
       52300.000        59.159300        2.5476800
       52500.000        59.177500        2.5317500
       52800.000        59.203900        2.5084500
       53000.000        59.220800        2.4929200
       53300.000        59.245200        2.4706500
       53500.000        59.261000        2.4558000
       53800.000        59.284100        2.4340600
       54000.000        59.299100        2.4195700
       54300.000        59.320800        2.3984200
       54500.000        59.334900        2.3843100
       54800.000        59.355300        2.3631600
       55000.000        59.368500        2.3490600
       55300.000        59.387800        2.3285500
       55500.000        59.400100        2.3148700
       55800.000        59.418000        2.2943600
       56000.000        59.429500        2.2806900
       56200.000        59.440800        2.2675800
       56400.000        59.451800        2.2544800
       56600.000        59.462500        2.2413800
       56800.000        59.472900        2.2282700
       57000.000        59.483100        2.2156200
       57200.000        59.493100        2.2029800
       57400.000        59.502800        2.1903300
       57530.000        59.509100        2.1821100
       57660.000        59.515200        2.1741100
       57800.000        59.521700        2.1655000
       58000.000        59.530900        2.1532000
       58300.000        59.544300        2.1348900
       58500.000        59.552900        2.1226800
       58800.000        59.565400        2.1050000
       59000.000        59.573400        2.0932100
       59300.000        59.585200        2.0755300
       59540.000        59.594400        2.0613800
       59670.000        59.599200        2.0539400
       59800.000        59.604000        2.0465000
       59900.000        59.607700        2.0408300
       60000.000        59.611300        2.0351700
       60400.000        59.625400        2.0127200
       60800.000        59.638700        1.9902700
       61100.000        59.648300        1.9739800
       61500.000        59.660600        1.9522700
       61900.000        59.672400        1.9312000
       62300.000        59.683700        1.9101300
       62600.000        59.691800        1.8947600
       63000.000        59.702200        1.8742700
       63500.000        59.714500        1.8495800
       64000.000        59.726200        1.8248800
       64500.000        59.737300        1.8012000
       65000.000        59.748000        1.7775200
       65500.000        59.758100        1.7543200
       65900.000        59.765600        1.7357600
       66400.000        59.774500        1.7134300
       66830.000        59.781800        1.6942200
       67100.000        59.786100        1.6825200
       67400.000        59.790800        1.6695300
       68000.000        59.799700        1.6441500
       68500.000        59.806600        1.6236900
       69000.000        59.813100        1.6032200
       69500.000        59.819200        1.5835500
       70000.000        59.824900        1.5638800
       70500.000        59.830300        1.5451100
       71000.000        59.835500        1.5263400
       71500.000        59.840400        1.5082800
       72000.000        59.845100        1.4902100
       72800.000        59.852000        1.4626300
       73500.000        59.857600        1.4384900
       74200.000        59.862900        1.4156400
       74960.000        59.868200        1.3908300
       75500.000        59.871700        1.3737000
       76000.000        59.874700        1.3581100
       77110.000        59.880700        1.3245000
       78600.000        59.887600        1.2814000
       79300.000        59.890500        1.2619100
       80000.000        59.893200        1.2428900
       81500.000        59.898000        1.2029400
       83000.000        59.901600        1.1649600
       84000.000        59.903400        1.1406800
       85000.000        59.904800        1.1171800
       86500.000        59.906300        1.0832700
       88000.000        59.907200        1.0509400
       89000.000        59.907400        1.0302200
       90000.000        59.907400        1.0101300
       91500.000        59.906900       0.98113300
       93000.000        59.906300       0.95341700
       94000.000        59.905600       0.93561500
       95000.000        59.904800       0.91832900
       96500.000        59.903200       0.89313100
       98000.000        59.901600       0.86899800
       99000.000        59.900300       0.85347100
       99500.000        59.899700       0.84586900
       100000.00        59.899000       0.83837300
