;  Atomic scattering factors for Os.
;   
;  Concatenation of data from CXRO <http://www-cxro.lbl.gov>
;  and LLNL <http://www-phys.llnl.gov/V_Div/scattering/asf.html>
;  
;  E (eV) f1 f2
;---------------
       10.000000       -9999.0000        1.8811700
       10.161700       -9999.0000        1.9378900
       10.326100       -9999.0000        1.9963200
       10.493100       -9999.0000        2.0565200
       10.662800       -9999.0000        2.1303200
       10.835300       -9999.0000        2.2081200
       11.010600       -9999.0000        2.2887700
       11.188600       -9999.0000        2.3723700
       11.369600       -9999.0000        2.4579600
       11.553500       -9999.0000        2.5375500
       11.740400       -9999.0000        2.6197200
       11.930300       -9999.0000        2.7045500
       12.123200       -9999.0000        2.7926500
       12.319300       -9999.0000        2.8876400
       12.518600       -9999.0000        2.9858600
       12.721000       -9999.0000        3.0874200
       12.926800       -9999.0000        3.1893800
       13.135900       -9999.0000        3.2735200
       13.348300       -9999.0000        3.3598900
       13.564200       -9999.0000        3.4485400
       13.783600       -9999.0000        3.5395200
       14.006600       -9999.0000        3.6329100
       14.233100       -9999.0000        3.7287600
       14.463300       -9999.0000        3.8580300
       14.697300       -9999.0000        3.9960500
       14.935000       -9999.0000        4.1390200
       15.176500       -9999.0000        4.2870900
       15.422000       -9999.0000        4.4404700
       15.671400       -9999.0000        4.5993300
       15.924900       -9999.0000        4.7468300
       16.182500       -9999.0000        4.8858300
       16.444200       -9999.0000        5.0289000
       16.710200       -9999.0000        5.1761500
       16.980500       -9999.0000        5.3277100
       17.255100       -9999.0000        5.4837200
       17.534200       -9999.0000        5.6498100
       17.817800       -9999.0000        5.8234200
       18.106000       -9999.0000        6.0023800
       18.398900       -9999.0000        6.1868300
       18.696400       -9999.0000        6.3769600
       18.998800       -9999.0000        6.5729200
       19.306100       -9999.0000        6.7724000
       19.618400       -9999.0000        6.9311600
       19.935700       -9999.0000        7.0936400
       20.258200       -9999.0000        7.2599300
       20.585800       -9999.0000        7.4301200
       20.918800       -9999.0000        7.6042900
       21.257100       -9999.0000        7.7825500
       21.600900       -9999.0000        7.9065700
       21.950300       -9999.0000        8.0320600
       22.305300       -9999.0000        8.1595400
       22.666100       -9999.0000        8.2890500
       23.032700       -9999.0000        8.4206200
       23.405300       -9999.0000        8.5474700
       23.783800       -9999.0000        8.6100300
       24.168500       -9999.0000        8.6730500
       24.559400       -9999.0000        8.7365300
       24.956600       -9999.0000        8.8004700
       25.360300       -9999.0000        8.8093200
       25.770500       -9999.0000        8.7717900
       26.187300       -9999.0000        8.7344200
       26.610900       -9999.0000        8.6972100
       27.041300       -9999.0000        8.6601600
       27.478600       -9999.0000        8.6179600
       27.923100       -9999.0000        8.5212600
       28.374700       -9999.0000        8.4256500
       28.833700       -9999.0000        8.3311100
       29.300000        8.3001100        8.2376400
       29.773900        8.4647300        8.1452100
       30.255500        8.6379600        8.0538200
       30.744900        8.8253300        7.9140000
       31.242100        8.9648600        7.7519000
       31.747500        9.0792000        7.5931400
       32.260900        9.1766600        7.4376200
       32.782700        9.2631500        7.2852900
       33.313000        9.3459900        7.1354900
       33.851800        9.4161600        6.9655700
       34.399300        9.4687000        6.7996900
       34.955700        9.5134000        6.6377600
       35.521100        9.5591900        6.4796900
       36.095600        9.6471300        6.3253800
       36.679400        9.8385000        6.0132400
       37.272700        9.8154200        5.5914400
       37.875500        9.6776000        5.1992500
       38.488200        9.4766600        4.8028300
       39.110700        9.1638600        4.4143500
       39.743200        8.7307800        4.0207800
       40.386100        8.0579500        3.8191800
       41.039300        7.4719900        3.7615000
       41.703100        6.8265900        3.7917800
       42.377600        6.2216200        3.9069000
       43.063000        5.5232300        4.0829500
       43.759500        4.8615100        4.4667300
       44.467300        4.2030100        4.9506300
       45.186500        3.6301200        5.5580200
       45.917400        3.0878200        6.2399600
       46.660000        2.6076000        7.1197500
       47.414700        2.2541200        8.1240600
       48.181600        2.0673800        9.2509300
       48.960900        2.0544100        10.480300
       49.752800        2.3602700        11.820000
       50.557600        2.9046900        13.035500
       51.375300        3.8940100        14.325800
       52.206200        4.9987900        14.825300
       53.050600        6.0056400        15.342200
       53.908700        6.9679400        15.600000
       54.780600        7.8718400        15.848500
       55.666700        8.7576000        15.963400
       56.567000        9.6095200        16.057500
       57.482000        10.568000        16.082800
       58.411700        11.410600        15.863300
       59.356400        12.147900        15.646700
       60.316500        12.903300        15.364200
       61.292100        13.528100        14.981900
       62.283400        14.094300        14.609000
       63.290800        14.660700        14.137900
       64.314500        15.054900        13.602100
       65.354700        15.317300        13.086700
       66.411800        15.442000        12.648500
       67.485900        15.589200        12.317000
       68.577500        15.732400        11.994200
       69.686700        15.851200        11.679900
       70.813800        15.918100        11.406600
       71.959100        16.013100        11.182700
       73.123000        16.116200        10.963100
       74.305700        16.219100        10.747900
       75.507600        16.319900        10.537000
       76.728900        16.418800        10.330100
       77.969900        16.518400        10.127300
       79.231000        16.626000        9.9285200
       80.512500        16.772400        9.7181800
       81.814700        16.878000        9.4081300
       83.138000        16.927200        9.1079600
       84.482700        16.937300        8.8173800
       85.849100        16.918500        8.5360600
       87.237700        16.873100        8.2637100
       88.648700        16.801400        8.0000700
       90.082500        16.701500        7.7448100
       91.539500        16.565100        7.4977300
       93.020100        16.356000        7.2585100
       94.524600        16.138600        7.1579400
       96.053500        15.968200        7.0701700
       97.607100        15.810600        6.9834700
       99.185800        15.652000        6.8978300
       100.79000        15.479200        6.8132400
       102.42000        15.262600        6.7624500
       104.07700        15.076600        6.7536500
       105.76000        14.905600        6.7448700
       107.47100        14.726800        6.7361000
       109.20900        14.506900        6.7481300
       110.97500        14.312300        6.8111100
       112.77000        14.135600        6.8746900
       114.59400        13.952500        6.9388500
       116.44800        13.717500        7.0365700
       118.33100        13.529700        7.1987600
       120.24500        13.378200        7.3646900
       122.19000        13.242400        7.5344500
       124.16600        13.118600        7.7081100
       126.17500        13.003800        7.8857900
       128.21500        12.895700        8.0675500
       130.28900        12.790900        8.2535100
       132.39700        12.676500        8.4481400
       134.53800        12.576500        8.6751400
       136.71400        12.495200        8.9082300
       138.92500        12.426100        9.1475900
       141.17200        12.367900        9.3933700
       143.45600        12.320200        9.6457700
       145.77600        12.282900        9.9049400
       148.13400        12.256500        10.171100
       150.53000        12.243000        10.442900
       152.96400        12.239100        10.719400
       155.43900        12.246000        11.003300
       157.95300        12.266300        11.294800
       160.50700        12.303000        11.593900
       163.10300        12.366000        11.901000
       165.74200        12.446200        12.182100
       168.42200        12.527500        12.463600
       171.14600        12.616000        12.751700
       173.91500        12.723200        13.046400
       176.72700        12.891600        13.320200
       179.58600        13.030400        13.542100
       182.49100        13.145100        13.767600
       185.44200        13.255000        13.996900
       188.44200        13.362400        14.230000
       191.48900        13.468800        14.466900
       194.58700        13.574800        14.707900
       197.73400        13.680400        14.952800
       200.93200        13.778800        15.201800
       204.18200        13.882300        15.475100
       207.48500        13.998300        15.754500
       210.84000        14.123600        16.038900
       214.25100        14.257000        16.328400
       217.71600        14.398600        16.623200
       221.23700        14.540700        16.923300
       224.81600        14.705400        17.255300
       228.45200        14.908900        17.567600
       232.14700        15.110200        17.864900
       235.90200        15.310600        18.167200
       239.71700        15.519600        18.474600
       243.59500        15.739000        18.787200
       247.53500        15.971000        19.105100
       251.53800        16.217900        19.428400
       255.60700        16.483400        19.757200
       259.74100        16.780100        20.091500
       263.94200        17.098200        20.403700
       268.21100        17.428800        20.715200
       272.54900        17.791800        21.031500
       276.95700        18.227100        21.300000
       281.43700        18.643500        21.505000
       285.98900        19.027100        21.670400
       290.61500        19.387600        21.830700
       295.31500        19.731500        21.991600
       300.09200        20.067600        22.153900
       304.94500        20.399000        22.317600
       309.87800        20.728400        22.483000
       314.89000        21.057100        22.649100
       319.98300        21.385800        22.816400
       325.15800        21.716400        22.985400
       330.41800        22.049400        23.154900
       335.76200        22.385200        23.325800
       341.19200        22.725300        23.498300
       346.71100        23.071100        23.672300
       352.31900        23.423800        23.847500
       358.01700        23.784100        24.023600
       363.80800        24.154200        24.201300
       369.69200        24.536800        24.380400
       375.67200        24.935500        24.560600
       381.74800        25.358300        24.742200
       387.92200        25.822400        24.912300
       394.19700        26.342200        25.054800
       400.57300        26.870000        25.075500
       407.05200        27.321700        25.047700
       413.63500        27.727800        25.020300
       420.32600        28.103800        24.993300
       427.12400        28.454000        24.966400
       434.03200        28.776400        24.938400
       441.05200        29.068000        24.911100
       448.18600        29.262300        24.904600
       455.43500        29.457900        25.001300
       462.80200        29.680500        25.171400
       470.28700        29.962000        25.382400
       477.89400        30.300200        25.595500
       485.62300        30.674000        25.809400
       493.47800        31.081800        26.024900
       501.45900        31.529200        26.243500
       509.57000        32.027100        26.463200
       517.81200        32.616400        26.662700
       526.18700        33.272400        26.785500
       534.69800        33.941600        26.761600
       543.34600        34.521100        26.664700
       552.13400        35.055100        26.568000
       561.06500        35.565500        26.455100
       570.13900        36.056700        26.331900
       579.36100        36.517000        26.188300
       588.73200        36.950200        26.040600
       598.25400        37.356100        25.890700
       607.93000        37.736500        25.741600
       617.76300        38.087100        25.593500
       627.75500        38.380800        25.452700
       637.90800        38.630900        25.391400
       648.22600        38.891400        25.447500
       658.71100        39.279300        25.581800
       669.36500        39.809900        25.716700
       680.19100        40.471700        25.678200
       691.19300        41.094900        25.501800
       702.37200        41.619400        25.265900
       713.73300        42.099700        25.016900
       725.27700        42.537400        24.759700
       737.00800        42.946400        24.505300
       748.92800        43.335200        24.253400
       761.04200        43.710200        24.003600
       773.35100        44.077900        23.752100
       785.85900        44.436000        23.488100
       798.57000        44.770500        23.214600
       811.48600        45.086700        22.944300
       824.61100        45.389700        22.676900
       837.94900        45.684000        22.412400
       851.50200        45.970500        22.144300
       865.27400        46.247600        21.871800
       879.26900        46.508700        21.595900
       893.49100        46.757400        21.323200
       907.94300        46.998000        21.053800
       922.62800        47.238400        20.787500
       937.55100        47.468600        20.502000
       952.71500        47.683800        20.214600
       968.12400        47.881400        19.926100
       983.78300        48.066000        19.641400
       999.69500        48.241600        19.358600
       1015.8600        48.411900        19.077600
       1032.2900        48.569000        18.783600
       1048.9900        48.710600        18.489400
       1065.9600        48.833400        18.194900
       1083.2000        48.940300        17.904800
       1100.7200        49.033500        17.619100
       1118.5200        49.113900        17.337800
       1136.6100        49.181800        17.060300
       1155.0000        49.237600        16.787000
       1173.6800        49.281500        16.517900
       1192.6600        49.313800        16.252900
       1211.9500        49.335100        15.991800
       1231.5500        49.345900        15.734300
       1251.4700        49.346000        15.477400
       1271.7200        49.334000        15.220400
       1292.2900        49.304300        14.962400
       1313.1900        49.257200        14.708400
       1334.4300        49.193500        14.458400
       1356.0100        49.113000        14.212300
       1377.9400        49.014800        13.970000
       1400.2300        48.898100        13.731700
       1422.8800        48.762300        13.497400
       1445.8900        48.605900        13.266300
       1469.2800        48.427300        13.038400
       1493.0400        48.225100        12.813600
       1517.1900        47.994200        12.587900
       1541.7300        47.730500        12.365600
       1566.6700        47.430900        12.147100
       1592.0100        47.091400        11.931900
       1617.7600        46.706000        11.720400
       1643.9200        46.268000        11.512600
       1670.5100        45.767800        11.308100
       1697.5300        45.193100        11.106900
       1724.9900        44.530000        10.909100
       1752.8900        43.751400        10.708800
       1781.2400        42.820800        10.510000
       1810.0500        41.685900        10.313000
       1839.3200        40.260600        10.119600
       1869.0700        38.388100        9.9297800
       1899.3000        35.723600        9.7437600
       1930.0200        31.191100        9.5606900
       1960.0000       -1.9802500        9.3880900
       1960.2000       -1.9825400        27.251500
       1961.2400        11.839300        27.233200
       1992.9600        29.263800        26.686700
       2025.2000        26.282400        26.151100
       2030.7000        11.396000        26.061600
       2030.9000        11.428400        38.249600
       2057.9500        35.399800        37.551600
       2091.2400        40.537000        36.722300
       2125.0600        43.818100        35.911600
       2159.4300        46.263900        35.118500
       2194.3600        48.199000        34.342900
       2229.8500        49.773700        33.585000
       2265.9200        51.065800        32.843900
       2302.5700        52.113700        32.120000
       2339.8100        52.923000        31.412000
       2377.6600        53.446200        30.719600
       2416.1100        53.474100        30.043900
       2455.1900        49.873600        29.383500
       2457.1000        45.466900        29.351900
       2457.3000        45.481100        34.090000
       2494.9000        55.258700        33.313000
       2535.2600        57.105500        32.511200
       2576.2600        58.380300        31.729000
       2617.9300        59.370200        30.966100
       2660.2700        60.158700        30.223400
       2703.3000        60.760100        29.498000
       2747.0300        61.105900        28.791600
       2791.4600        59.419400        28.103200
       2792.1000        58.321600        28.093400
       2792.3000        58.330500        29.866600
       2836.6100        62.328200        29.190800
       2882.4900        63.228100        28.517700
       2929.1100        63.879800        27.860300
       2976.4800        64.356200        27.220000
       3024.6300        64.539500        26.594700
       3048.4000        62.798700        26.294800
       3048.6000        62.800900        27.443700
       3073.5500        65.087900        27.135700
       3123.2600        65.974800        26.539200
       3173.7800        66.612600        25.954100
       3225.1100        67.152500        25.378700
       3277.2700        67.629200        24.813900
       3330.2800        68.059400        24.260300
       3384.1500        68.451900        23.716900
       3438.8800        68.811400        23.183200
       3494.5000        69.142200        22.660100
       3551.0200        69.446900        22.146500
       3608.4600        69.728300        21.644200
       3666.8200        69.989100        21.151400
       3726.1300        70.230200        20.668100
       3786.4000        70.453500        20.194600
       3847.6400        70.659400        19.730200
       3909.8700        70.849600        19.276000
       3973.1100        71.026000        18.831200
       4037.3800        71.189100        18.395000
       4102.6800        71.338400        17.967100
       4169.0300        71.475400        17.549000
       4236.4600        71.601600        17.139600
       4304.9800        71.717000        16.738600
       4374.6200        71.822100        16.346200
       4445.3700        71.917700        15.961900
       4517.2700        72.004100        15.586000
       4590.3300        72.082000        15.218100
       4664.5800        72.151600        14.858100
       4740.0300        72.213500        14.505900
       4816.6900        72.268000        14.161300
       4894.6000        72.315400        13.824200
       4973.7700        72.356100        13.494600
       5054.2100        72.390400        13.172200
       5135.9600        72.418600        12.856900
       5219.0300        72.441000        12.548700
       5303.4400        72.457800        12.247300
       5389.2200        72.469300        11.952600
       5476.3900        72.475500        11.664600
       5564.9700        72.477000        11.383100
       5654.9800        72.473700        11.107800
       5746.4400        72.465700        10.838900
       5839.3900        72.453200        10.576000
       5933.8300        72.436500        10.319200
       6029.8100        72.415700        10.068400
       6127.3300        72.390800        9.8232000
       6226.4400        72.361900        9.5837300
       6327.1500        72.329200        9.3497300
       6429.4800        72.292600        9.1212100
       6533.4800        72.252300        8.8978200
       6639.1500        72.208100        8.6796600
       6746.5400        72.160100        8.4666900
       6855.6500        72.108400        8.2584500
       6966.5400        72.052700        8.0553100
       7079.2200        71.993300        7.8568800
       7193.7200        71.930000        7.6629400
       7310.0700        71.862300        7.4735800
       7428.3100        71.790500        7.2888700
       7548.4500        71.714300        7.1082700
       7670.5400        71.633500        6.9321700
       7794.6100        71.547700        6.7600200
       7920.6800        71.456700        6.5921600
       8048.7900        71.360100        6.4278800
       8178.9800        71.257100        6.2676200
       8311.2600        71.147500        6.1111900
       8445.6900        71.030300        5.9585200
       8582.2900        70.904900        5.8094200
       8721.1100        70.770200        5.6639700
       8862.1600        70.624800        5.5217000
       9005.5000        70.466900        5.3829700
       9151.1600        70.294600        5.2474400
       9299.1700        70.105200        5.1152300
       9449.5800        69.895000        4.9860800
       9602.4200        69.659200        4.8600600
       9757.7300        69.390900        4.7367000
       9915.5500        69.080300        4.6164700
       10075.900        68.709900        4.4946100
       10238.900        68.247700        4.3758100
       10404.500        67.640300        4.2599900
       10572.800        66.752800        4.1470700
       10743.800        65.073100        4.0370100
       10870.800        50.797300        3.9582400
       10871.000        50.797900        10.263000
       10917.600        63.179800        10.183600
       11094.200        66.335700        9.8910800
       11273.600        67.449300        9.6069600
       11455.900        68.063200        9.3310100
       11641.200        68.409000        9.0629900
       11829.500        68.547400        8.8026600
       12020.800        68.456600        8.5498200
       12215.300        67.963200        8.3042400
       12384.900        60.645700        8.0987800
       12385.100        60.647000        11.358300
       12412.800        66.311300        11.315200
       12613.600        68.569700        11.011400
       12817.600        69.067500        10.715700
       12967.900        65.885000        10.505900
       12968.100        65.885600        12.078000
       13025.000        69.220700        11.998600
       13235.600        70.493100        11.712000
       13449.700        71.198200        11.430700
       13667.200        71.734200        11.154800
       13888.300        72.174600        10.884200
       14112.900        72.549800        10.618900
       14341.200        72.876300        10.358900
       14573.100        73.164100        10.104100
       14808.900        73.420400        9.8545800
       15048.400        73.650000        9.6102100
       15291.800        73.856800        9.3709800
       15539.100        74.043800        9.1368200
       15790.400        74.213200        8.9076800
       16045.800        74.367100        8.6835100
       16305.400        74.507100        8.4642400
       16569.100        74.634500        8.2498100
       16837.100        74.750500        8.0401500
       17109.400        74.856200        7.8352100
       17386.100        74.952400        7.6349100
       17667.400        75.039900        7.4391700
       17953.100        75.119500        7.2479400
       18243.500        75.191700        7.0611400
       18538.600        75.257100        6.8786900
       18838.400        75.316300        6.7005200
       19143.100        75.369600        6.5265600
       19452.700        75.417400        6.3567300
       19767.400        75.460300        6.1909500
       20087.100        75.498500        6.0291600
       20412.000        75.532400        5.8712700
       20742.100        75.562200        5.7172300
       21077.600        75.588200        5.5669300
       21418.500        75.610700        5.4203200
       21765.000        75.629900        5.2773100
       22117.000        75.646000        5.1378500
       22474.700        75.659300        5.0018500
       22838.200        75.669900        4.8692300
       23207.600        75.678000        4.7399400
       23583.000        75.683700        4.6138900
       23964.400        75.687300        4.4910200
       24352.000        75.688800        4.3712600
       24745.900        75.688400        4.2545400
       25146.200        75.686300        4.1407900
       25552.900        75.682500        4.0299400
       25966.200        75.677100        3.9219400
       26386.100        75.670300        3.8167100
       26812.900        75.662100        3.7141900
       27246.600        75.652700        3.6143100
       27687.300        75.642100        3.5170300
       28135.100        75.630500        3.4222600
       28590.200        75.617900        3.3299700
       29052.600        75.605000        3.2400800
       29522.500        75.599500        3.1525300
       30000.000        75.548100        3.0672800
       30400.000        75.489300        3.0595800
       30800.000        75.476600        2.9920500
       31200.000        75.463500        2.9268500
       31500.000        75.453500        2.8794200
       31900.000        75.439800        2.8180400
       32300.000        75.426200        2.7587200
       32600.000        75.415900        2.7155100
       33000.000        75.402100        2.6595500
       33400.000        75.388000        2.6048800
       33800.000        75.373900        2.5519600
       34100.000        75.363000        2.5133800
       34500.000        75.348500        2.4633500
       34900.000        75.333800        2.4148800
       35300.000        75.319200        2.3677900
       35700.000        75.304300        2.3221000
       36030.000        75.292000        2.2854400
       36500.000        75.274400        2.2347900
       37000.000        75.255700        2.1828200
       37500.000        75.236900        2.1327300
       38000.000        75.218200        2.0844400
       38500.000        75.199500        2.0377900
       39000.000        75.180800        1.9927700
       39500.000        75.162100        1.9492900
       40000.000        75.143400        1.9073000
       40500.000        75.124600        1.8663900
       41000.000        75.105900        1.8268500
       41500.000        75.087200        1.7886100
       42000.000        75.068500        1.7516200
       42400.000        75.053500        1.7228800
       42800.000        75.038500        1.6948800
       43522.200        75.011500        1.6461000
       44200.000        74.986100        1.6023000
       44800.000        74.963700        1.5650400
       45400.000        74.941200        1.5290300
       46000.000        74.918800        1.4942500
       46500.000        74.899900        1.4662100
       47000.000        74.881000        1.4389900
       47500.000        74.862200        1.4125500
       48000.000        74.843300        1.3868600
       48500.000        74.824300        1.3619100
       49000.000        74.805300        1.3376500
       49500.000        74.786100        1.3140600
       50000.000        74.767000        1.2911200
       51000.000        74.728300        1.2466700
       52000.000        74.688800        1.2045700
       53000.000        74.648500        1.1646500
       54000.000        74.607300        1.1267700
       55000.000        74.565000        1.0907700
       56000.000        74.521500        1.0564900
       56800.000        74.485600        1.0302600
       57530.000        74.451900        1.0072000
       58000.000        74.429700       0.99277700
       58500.000        74.405500       0.97778700
       59000.000        74.380800       0.96333100
       59540.000        74.353400       0.94771900
       59800.000        74.339900       0.94042700
       60000.000        74.329400       0.93487800
       60800.000        74.286200       0.91309300
       61500.000        74.246500       0.89467500
       61900.000        74.223000       0.88450100
       62300.000        74.198800       0.87432600
       62600.000        74.180100       0.86694700
       63000.000        74.154600       0.85710800
       63500.000        74.121500       0.84526100
       64000.000        74.086900       0.83341400
       64500.000        74.050600       0.82207000
       65000.000        74.012500       0.81072700
       65500.000        73.972300       0.79983500
       65900.000        73.938500       0.79112200
       66400.000        73.893800       0.78064300
       66830.000        73.853000       0.77163100
       67100.000        73.826100       0.76614700
       67400.000        73.794900       0.76005300
       67700.000        73.762400       0.75410400
       68000.000        73.728100       0.74815600
       68300.000        73.692200       0.74239800
       68500.000        73.667100       0.73856000
       68800.000        73.627700       0.73280200
       69000.000        73.600100       0.72896300
       69300.000        73.556500       0.72343300
       69500.000        73.525900       0.71974600
       69800.000        73.477200       0.71421600
       70000.000        73.442700       0.71052900
       70300.000        73.387500       0.70519300
       70500.000        73.348100       0.70163500
       70800.000        73.284400       0.69629900
       70900.000        73.261800       0.69452100
       71000.000        73.238400       0.69274200
       71150.000        73.201800       0.69017700
       71300.000        73.163200       0.68761200
       71400.000        73.136200       0.68590200
       71500.000        73.108200       0.68419200
       71650.000        73.063900       0.68162600
       71800.000        73.016700       0.67906100
       71900.000        72.983400       0.67735100
       72000.000        72.948400       0.67564100
       72150.000        72.892500       0.67317300
       72300.000        72.831900       0.67070500
       72400.000        72.788500       0.66906000
       72500.000        72.742300       0.66741500
       72580.000        72.703100       0.66609800
       72650.000        72.666900       0.66494700
       72730.000        72.623300       0.66363000
       72800.000        72.582900       0.66247900
       72850.000        72.552800       0.66165600
       72900.000        72.521100       0.66083300
       72950.000        72.488100       0.66001100
       73000.000        72.453600       0.65918800
       73080.000        72.394800       0.65792300
       73150.000        72.339300       0.65681700
       73230.000        72.270400       0.65555200
       73300.000        72.204400       0.65444500
       73350.000        72.153500       0.65365500
       73400.000        72.098900       0.65286400
       73450.000        72.040100       0.65207400
       73470.000        72.015300       0.65175800
       73500.000        71.976400       0.65128400
       73540.000        71.921300       0.65065100
       73580.000        71.862100       0.65001900
       73620.000        71.797800       0.64938600
       73650.000        71.745800       0.64891200
       73670.000        71.709200       0.64859600
       73690.000        71.670700       0.64828000
       73710.000        71.630200       0.64796400
       73730.000        71.587500       0.64764700
       73745.000        71.553800       0.64741000
       73760.000        71.518700       0.64717300
       73780.000        71.469200       0.64685700
       73800.000        71.416400       0.64654100
       73815.000        71.374400       0.64630400
       73830.000        71.329900       0.64606700
       73850.000        71.266500       0.64575000
       73870.000        71.197600       0.64543400
       73885.000        71.141600       0.64519700
       73900.000        71.081400       0.64496000
       73910.000        71.038500       0.64480200
       73920.000        70.993300       0.64464400
       73930.000        70.945200       0.64448600
       73940.000        70.894200       0.64432800
       73947.000        70.856300       0.64421700
       73955.000        70.810800       0.64409000
       73963.000        70.762500       0.64396400
       73970.000        70.717800       0.64385300
       73980.000        70.649200       0.64369500
       73990.000        70.574100       0.64353700
       74000.000        70.491300       0.64337900
       74010.000        70.399100       0.64322100
       74015.000        70.348600       0.64314200
       74020.000        70.294700       0.64306300
       74025.000        70.237000       0.64298400
       74030.000        70.175100       0.64290500
       74035.000        70.107700       0.64282600
       74040.000        70.034400       0.64274700
       74045.000        69.953700       0.64266800
       74050.000        69.864300       0.64258900
       74055.000        69.763400       0.64251000
       74058.000        69.696300       0.64246200
       74060.000        69.648300       0.64243000
       74063.000        69.570600       0.64238300
       74065.000        69.514200       0.64235100
       74068.000        69.421900       0.64230400
       74070.000        69.353900       0.64227200
       74073.000        69.239700       0.64222500
       74075.000        69.153700       0.64219300
       74077.000        69.057700       0.64216200
       74079.000        68.948700       0.64213000
       74080.500        68.856300       0.64210600
       74082.000        68.751500       0.64208300
       74083.000        68.673200       0.64206700
       74084.000        68.585800       0.64205100
       74085.000        68.488000       0.64203500
       74086.000        68.374200       0.64201900
       74087.500        68.158200       0.64199600
       74089.000        67.810600       0.64197200
       74089.000        67.806500       0.64197200
       74089.100        67.814600       0.70608100
       74089.300        67.824800       0.83430000
       74089.700        67.841200        1.0907400
       74090.500        67.862000        1.6036100
       74091.200        67.852100        1.1227700
       74091.900        67.814500       0.64192600
       74092.900        67.380900       0.64191100
       74093.900        66.857000       0.64189500
       74094.900        66.071800       0.64188000
       74095.900        64.445900       0.64186400
       74096.700        66.081600        6.6459900
       74097.400        67.541800        11.899600
       74097.900        68.536100        6.2707100
       74098.400        69.381500       0.64182500
       74098.700        70.091400       0.64182200
       74098.900        70.480600       0.64181800
       74099.900        68.899800        2.6788700
       74101.400        68.120100        1.9401400
       74102.200        67.930600        2.9962800
       74103.000        68.061700        3.5222800
       74104.000        68.638300        3.4813200
       74105.000        68.824900        3.4402200
       74106.000        68.952300        3.4001500
       74107.000        69.052900        3.3600700
       74108.000        69.128100        3.3207000
       74109.000        69.186900        3.2818200
       74110.000        69.235600        3.2634700
       74111.000        69.279800        3.2452200
       74112.000        69.321300        3.2270700
       74113.000        69.358300        3.2089400
       74113.800        69.384700        3.2006300
       74114.500        69.405900        3.1933800
       74115.200        69.425900        3.1860700
       74116.000        69.450200        3.1776900
       74117.000        69.475800        3.1723900
       74118.000        69.503100        3.1670100
       74120.000        69.551400        3.1563800
       74121.500        69.584000        3.1535700
       74123.000        69.615700        3.1507600
       74124.500        69.645700        3.1509400
       74126.000        69.675300        3.1511200
       74130.000        69.750000        3.1575900
       74132.000        69.786000        3.1624000
       74135.000        69.838900        3.1704500
       74140.000        69.924500        3.1842900
       74145.000        70.006900        3.1963300
       74150.000        70.085600        3.2052100
       74155.000        70.160100        3.2105300
       74160.000        70.229500        3.2126100
       74165.000        70.293600        3.2122000
       74170.000        70.352500        3.2101500
       74174.000        70.396000        3.2078300
       74178.000        70.436600        3.2055200
       74182.000        70.474600        3.2032000
       74185.000        70.501300        3.2014600
       74193.000        70.568100        3.1994700
       74200.000        70.621700        3.1977300
       74205.000        70.657600        3.1981100
       74210.000        70.692200        3.1984900
       74220.000        70.758400        3.2008100
       74235.000        70.851600        3.2042100
       74250.000        70.937700        3.2051200
       74265.000        71.016000        3.2032900
       74280.000        71.086300        3.2003100
       74290.000        71.129300        3.1987600
       74300.000        71.169500        3.1972200
       74315.000        71.226500        3.1971200
       74330.000        71.280800        3.1970200
       74350.000        71.348800        3.1968900
       74380.000        71.441900        3.1948100
       74400.000        71.498400        3.1934300
       74420.000        71.551300        3.1922500
       74450.000        71.625100        3.1904800
       74470.000        71.671100        3.1893100
       74500.000        71.735900        3.1875400
       74520.000        71.776600        3.1860700
       74550.000        71.834100        3.1838600
       74570.000        71.870300        3.1823800
       74600.000        71.921900        3.1801700
       74630.000        71.970600        3.1779600
       74650.000        72.001500        3.1764800
       74680.000        72.045900        3.1742700
       74700.000        72.074200        3.1728000
       74740.000        72.128100        3.1702600
       74770.000        72.166500        3.1683600
       74800.000        72.203200        3.1664600
       74830.000        72.238400        3.1645600
       74870.000        72.283100        3.1620200
       74900.000        72.314900        3.1601200
       74930.000        72.345600        3.1582100
       74960.000        72.375500        3.1563100
       75020.000        72.432800        3.1524700
       75080.000        72.487500        3.1486200
       75140.000        72.538300        3.1447800
       75200.000        72.587400        3.1409300
       75280.000        72.648900        3.1358100
       75350.000        72.699000        3.1313200
       75420.000        72.746500        3.1268400
       75500.000        72.797400        3.1217100
       75580.000        72.844900        3.1162700
       75650.000        72.883900        3.1115100
       75730.000        72.926900        3.1060700
       75800.000        72.963000        3.1013100
       75900.000        73.012100        3.0950700
       76000.000        73.058600        3.0888300
       76150.000        73.124000        3.0803200
       76300.000        73.185200        3.0718100
       76450.000        73.242800        3.0640800
       76600.000        73.297700        3.0563600
       76750.000        73.350600        3.0474000
       76900.000        73.400400        3.0384400
       77010.000        73.435500        3.0318600
       77110.000        73.466200        3.0258900
       77300.000        73.521400        3.0131400
       77400.000        73.549200        3.0064300
       77500.000        73.576100        2.9997200
       77600.000        73.601900        2.9930000
       77700.000        73.626800        2.9862900
       77900.000        73.673900        2.9728700
       78100.000        73.718800        2.9603200
       78300.000        73.761300        2.9477800
       78450.000        73.791700        2.9383700
       78600.000        73.820900        2.9289600
       78800.000        73.858400        2.9172500
       79000.000        73.894400        2.9055500
       79150.000        73.920400        2.8967700
       79300.000        73.945400        2.8879900
       79500.000        73.977600        2.8772600
       79700.000        74.009000        2.8665300
       79850.000        74.031900        2.8584800
       80000.000        74.054200        2.8504300
       80200.000        74.083200        2.8399800
       80400.000        74.111300        2.8295400
       80600.000        74.138400        2.8190900
       80800.000        74.164800        2.8086400
       81000.000        74.190400        2.7982000
       81200.000        74.215300        2.7877500
       81500.000        74.251700        2.7720800
       81700.000        74.275200        2.7616300
       81900.000        74.297800        2.7511900
       82100.000        74.319800        2.7407400
       82300.000        74.341300        2.7302900
       82700.000        74.382500        2.7094000
       83000.000        74.412400        2.6937300
       83300.000        74.441200        2.6778000
       83500.000        74.459500        2.6671800
       83800.000        74.486100        2.6512600
       84000.000        74.503200        2.6406400
       84300.000        74.528100        2.6252100
       84500.000        74.544000        2.6149200
       84800.000        74.567300        2.5994900
       85000.000        74.582400        2.5892000
       85400.000        74.611500        2.5694700
       85800.000        74.639200        2.5497400
       86200.000        74.665800        2.5300200
       86500.000        74.684900        2.5152200
       86900.000        74.709500        2.4963800
       87300.000        74.733000        2.4775400
       87700.000        74.755500        2.4587000
       88000.000        74.771600        2.4445700
       88300.000        74.787300        2.4313000
       88500.000        74.797500        2.4224500
       89000.000        74.822400        2.4003300
       89500.000        74.846300        2.3788500
       89800.000        74.860000        2.3659700
       90000.000        74.869000        2.3573800
       90400.000        74.886400        2.3410200
       90800.000        74.903400        2.3246500
       91200.000        74.919900        2.3082900
       91500.000        74.931900        2.2960200
       91900.000        74.947500        2.2803400
       92300.000        74.962600        2.2646500
       92700.000        74.977300        2.2489700
       93000.000        74.988000        2.2372100
       93500.000        75.005300        2.2182100
       94000.000        75.022000        2.1992100
       94500.000        75.038100        2.1807200
       94800.000        75.047500        2.1696300
       95000.000        75.053600        2.1622400
       95400.000        75.065700        2.1478600
       95800.000        75.077300        2.1334900
       96200.000        75.088700        2.1191100
       96500.000        75.096900        2.1083300
       96900.000        75.107700        2.0945200
       97300.000        75.118200        2.0807200
       97700.000        75.128300        2.0669100
       98000.000        75.135800        2.0565600
       98500.000        75.147900        2.0398900
       99000.000        75.159700        2.0232200
       99500.000        75.171100        2.0069800
       99800.000        75.177900        1.9972400
       99900.000        75.180200        1.9940000
       100000.00        75.182500        1.9907500
