;  Atomic scattering factors for Pa.
;   
;  Concatenation of data from CXRO <http://www-cxro.lbl.gov>
;  and LLNL <http://www-phys.llnl.gov/V_Div/scattering/asf.html>
;  
;  E (eV) f1 f2
;---------------
       10.000000       -9999.0000        1.7578800
       10.161700       -9999.0000        1.7610100
       10.326100       -9999.0000        1.7641400
       10.493100       -9999.0000        1.7672800
       10.662800       -9999.0000        1.7346600
       10.835300       -9999.0000        1.6929500
       11.010600       -9999.0000        1.6522400
       11.188600       -9999.0000        1.6145700
       11.369600       -9999.0000        1.5851200
       11.553500       -9999.0000        1.5562000
       11.740400       -9999.0000        1.5278000
       11.930300       -9999.0000        1.4999300
       12.123200       -9999.0000        1.4725600
       12.319300       -9999.0000        1.4456900
       12.518600       -9999.0000        1.4193200
       12.721000       -9999.0000        1.3933700
       12.926800       -9999.0000        1.3669400
       13.135900       -9999.0000        1.3410100
       13.348300       -9999.0000        1.3155700
       13.564200       -9999.0000        1.2906200
       13.783600       -9999.0000        1.2661300
       14.006600       -9999.0000        1.2421200
       14.233100       -9999.0000        1.2185600
       14.463300       -9999.0000        1.1975100
       14.697300       -9999.0000        1.1780700
       14.935000       -9999.0000        1.1589400
       15.176500       -9999.0000        1.1401300
       15.422000       -9999.0000        1.1216200
       15.671400       -9999.0000        1.1076900
       15.924900       -9999.0000        1.1013400
       16.182500       -9999.0000        1.0950200
       16.444200       -9999.0000        1.1016600
       16.710200       -9999.0000        1.1217800
       16.980500       -9999.0000        1.1606500
       17.255100       -9999.0000        1.2395900
       17.534200       -9999.0000        1.4623100
       17.817800       -9999.0000        1.7715600
       18.106000       -9999.0000        2.1461900
       18.398900       -9999.0000        2.5599300
       18.696400       -9999.0000        2.8688700
       18.998800       -9999.0000        3.2150800
       19.306100       -9999.0000        3.6030800
       19.618400       -9999.0000        3.9547900
       19.935700       -9999.0000        4.2124500
       20.258200       -9999.0000        4.4869200
       20.585800       -9999.0000        4.7792500
       20.918800       -9999.0000        5.0906300
       21.257100       -9999.0000        5.3921600
       21.600900       -9999.0000        5.6856800
       21.950300       -9999.0000        5.9951700
       22.305300       -9999.0000        6.3215100
       22.666100       -9999.0000        6.6656100
       23.032700       -9999.0000        7.0284500
       23.405300       -9999.0000        7.3957800
       23.783800       -9999.0000        7.7570700
       24.168500       -9999.0000        8.1360100
       24.559400       -9999.0000        8.5334600
       24.956600       -9999.0000        8.9503200
       25.360300       -9999.0000        9.3875500
       25.770500       -9999.0000        9.7833800
       26.187300       -9999.0000        10.154100
       26.610900       -9999.0000        10.538900
       27.041300       -9999.0000        10.938200
       27.478600       -9999.0000        11.352700
       27.923100       -9999.0000        11.782800
       28.374700       -9999.0000        12.096300
       28.833700       -9999.0000        12.352400
       29.300000        5.6968100        12.613900
       29.773900        6.0633600        12.880900
       30.255500        6.4465300        13.153500
       30.744900        6.8604800        13.432000
       31.242100        7.3310600        13.716300
       31.747500        7.8793200        13.899500
       32.260900        8.3679800        14.025900
       32.782700        8.8458900        14.153600
       33.313000        9.3351500        14.282400
       33.851800        9.8579100        14.412300
       34.399300        10.455500        14.543500
       34.955700        11.182800        14.499300
       35.521100        11.798000        14.324100
       36.095600        12.317700        14.069400
       36.679400        12.757000        13.819200
       37.272700        13.147500        13.573400
       37.875500        13.501700        13.332000
       38.488200        13.827200        13.094900
       39.110700        14.129000        12.862100
       39.743200        14.411100        12.633300
       40.386100        14.677200        12.409700
       41.039300        14.932400        12.190400
       41.703100        15.181000        11.975000
       42.377600        15.438300        11.763500
       43.063000        15.741100        11.521100
       43.759500        15.975000        11.183300
       44.467300        16.136200        10.855400
       45.186500        16.235400        10.537200
       45.917400        16.315000        10.310500
       46.660000        16.415000        10.090300
       47.414700        16.525800        9.8747600
       48.181600        16.649300        9.6449300
       48.960900        16.751400        9.4035800
       49.752800        16.846200        9.1682700
       50.557600        16.949000        8.9388400
       51.375300        17.102000        8.6712200
       52.206200        17.173300        8.2996800
       53.050600        17.159300        7.9440700
       53.908700        17.093400        7.6574900
       54.780600        17.036400        7.3971400
       55.666700        16.978300        7.1456300
       56.567000        16.918000        6.9026900
       57.482000        16.873300        6.6580600
       58.411700        16.794400        6.3650900
       59.356400        16.673000        6.0850000
       60.316500        16.524100        5.8173500
       61.292100        16.353500        5.5636600
       62.283400        16.164600        5.3210500
       63.290800        15.961100        5.0874200
       64.314500        15.735300        4.8553400
       65.354700        15.486700        4.6338600
       66.411800        15.219900        4.4199500
       67.485900        14.926300        4.2085400
       68.577500        14.604900        4.0072400
       69.686700        14.254800        3.8187300
       70.813800        13.880800        3.6416300
       71.959100        13.479600        3.4727300
       73.123000        13.048100        3.3113800
       74.305700        12.579500        3.1534700
       75.507600        12.065900        3.0031000
       76.728900        11.492600        2.8692400
       77.969900        10.878800        2.7574500
       79.231000        10.202800        2.6508400
       80.512500        9.4661200        2.5799600
       81.814700        8.6561200        2.5109800
       83.138000        7.7510300        2.4645200
       84.482700        6.7109300        2.4399700
       85.849100        5.5421600        2.4479200
       87.237700        4.1760100        2.4744200
       88.648700        2.4709500        2.5222600
       90.082500       0.24295400        2.6916600
       91.539500       -3.0370800        3.1907800
       93.020100       -7.3072300        6.6641000
       94.524600       -9.1905300        12.102500
       96.053500       -8.6461800        19.457200
       97.607100        3.7473800        21.562400
       99.185800        1.9088900        13.048000
       100.79000       -2.8078800        10.714500
       102.42000       -11.046200        9.9841200
       104.07700       -19.276500        15.669600
       105.76000       -27.071000        24.592300
       107.47100       -34.395200        41.019900
       109.20900       -25.932900        72.593300
       110.97500        1.0443800        82.120000
       112.77000        28.627900        77.214200
       114.59400        40.539400        59.882300
       116.44800        41.398500        49.645300
       118.33100        42.259000        43.342700
       120.24500        43.083600        37.840000
       122.19000        43.049100        33.036100
       124.16600        41.854700        28.842000
       126.17500        40.573300        26.864400
       128.21500        40.047700        25.238300
       130.28900        39.759000        23.710700
       132.39700        39.551600        22.275500
       134.53800        39.368500        20.927200
       136.71400        39.185000        19.660500
       138.92500        38.988300        18.470400
       141.17200        38.773000        17.352400
       143.45600        38.535600        16.302100
       145.77600        38.274000        15.315400
       148.13400        37.979100        14.388900
       150.53000        37.673400        13.554100
       152.96400        37.364000        12.767800
       155.43900        37.045200        12.027200
       157.95300        36.710500        11.329500
       160.50700        36.352800        10.672200
       163.10300        35.942500        10.053100
       165.74200        35.513100        9.6026700
       168.42200        35.183400        9.2181300
       171.14600        34.889700        8.7843200
       173.91500        34.578700        8.3725400
       176.72700        34.262100        7.9988900
       179.58600        33.922200        7.6419100
       182.49100        33.611700        7.4017500
       185.44200        33.367300        7.1731900
       188.44200        33.199900        6.8963800
       191.48900        32.993400        6.5728400
       194.58700        32.756000        6.2497300
       197.73400        32.482500        5.9307500
       200.93200        32.156900        5.6638300
       204.18200        31.860200        5.4517200
       207.48500        31.571900        5.2535700
       210.84000        31.313700        5.0967500
       214.25100        31.113400        4.9446200
       217.71600        30.973200        4.6958100
       221.23700        30.642900        4.3711500
       224.81600        30.303200        4.2035500
       228.45200        30.001300        4.0423900
       232.14700        29.701700        3.8841100
       235.90200        29.393800        3.7302100
       239.71700        29.067700        3.5895700
       243.59500        28.742200        3.4691000
       247.53500        28.406100        3.3526700
       251.53800        28.040700        3.2639500
       255.60700        27.686000        3.2053100
       259.74100        27.304400        3.1590000
       263.94200        26.946500        3.1751900
       268.21100        26.617100        3.1914600
       272.54900        26.291700        3.2090800
       276.95700        25.973300        3.2379600
       281.43700        25.659400        3.2671000
       285.98900        25.343600        3.2972700
       290.61500        25.025000        3.3299500
       295.31500        24.699200        3.3629500
       300.09200        24.355600        3.3962800
       304.94500        24.001700        3.4584100
       309.87800        23.649100        3.5275400
       314.89000        23.292900        3.5980500
       319.98300        22.925200        3.6702000
       325.15800        22.541700        3.7441500
       330.41800        22.136200        3.8195800
       335.76200        21.694400        3.9044800
       341.19200        21.228700        4.0054200
       346.71100        20.711400        4.1089800
       352.31900        20.147100        4.2686800
       358.01700        19.512600        4.4569300
       363.80800        18.861100        4.7961200
       369.69200        18.295700        5.1727900
       375.67200        17.702600        5.5184400
       381.74800        16.949400        5.8968300
       387.92200        16.242200        6.5504800
       394.19700        15.638200        7.2071800
       400.57300        15.069300        7.8995500
       407.05200        14.462900        8.5693000
       413.63500        13.726000        9.3329700
       420.32600        12.953900        10.414700
       427.12400        12.630600        11.921000
       434.03200        12.454000        12.930500
       441.05200        12.239200        14.025400
       448.18600        12.027000        15.212700
       455.43500        11.862900        16.540100
       462.80200        12.132500        18.081100
       470.28700        12.580800        19.159800
       477.89400        12.880500        20.144200
       485.62300        13.147900        21.179100
       493.47800        13.445500        22.267500
       501.45900        13.812000        23.412200
       509.57000        14.435700        24.578000
       517.81200        15.063900        25.510400
       526.18700        15.660400        26.478200
       534.69800        16.399200        27.460000
       543.34600        17.132800        28.250400
       552.13400        17.855500        29.063500
       561.06500        18.674100        29.900100
       570.13900        19.613700        30.596600
       579.36100        20.464100        31.133500
       588.73200        21.268300        31.679900
       598.25400        22.128600        32.235800
       607.93000        23.058300        32.663700
       617.76300        23.870800        32.944600
       627.75500        24.594000        33.227800
       637.90800        25.296000        33.513600
       648.22600        25.922100        33.718400
       658.71100        26.405400        33.911300
       669.36500        26.615900        34.105300
       680.19100        26.621000        34.918900
       691.19300        27.002600        36.136600
       702.37200        27.976100        37.352400
       713.73300        29.128200        38.379900
       725.27700        30.876100        39.435700
       737.00800        32.641200        39.514400
       748.92800        34.007000        39.466000
       761.04200        35.219000        39.413100
       773.35100        36.361000        39.360200
       785.85900        37.519200        39.307300
       798.57000        38.611900        39.073300
       811.48600        39.603600        38.827900
       824.61100        40.518600        38.584100
       837.94900        41.390500        38.345500
       851.50200        42.239700        38.110100
       865.27400        43.119600        37.872800
       879.26900        43.924900        37.478000
       893.49100        44.617400        37.087300
       907.94300        45.216400        36.760300
       922.62800        45.805000        36.486400
       937.55100        46.395900        36.214500
       952.71500        46.968300        35.944700
       968.12400        47.516200        35.669100
       983.78300        48.043400        35.394900
       999.69500        48.427600        35.122700
       1015.8600        49.012300        35.146400
       1032.2900        49.546700        34.711700
       1048.9900        49.880700        34.439400
       1065.9600        50.260800        34.345700
       1083.2000        50.701300        34.251900
       1100.7200        51.166600        34.157900
       1118.5200        51.647800        34.063700
       1136.6100        52.141500        33.969000
       1155.0000        52.646900        33.874200
       1173.6800        53.164700        33.779100
       1192.6600        53.696800        33.683600
       1211.9500        54.248500        33.588000
       1231.5500        54.837600        33.492200
       1251.4700        55.462800        33.344800
       1271.7200        56.105900        33.141600
       1292.2900        56.697100        32.870500
       1313.1900        57.248700        32.600700
       1334.4300        57.780200        32.332800
       1356.0100        58.299600        32.066600
       1377.9400        58.811400        31.801200
       1400.2300        59.320400        31.537700
       1422.8800        59.833200        31.276100
       1445.8900        60.360100        31.015300
       1469.2800        60.921400        30.733400
       1493.0400        61.523500        30.419300
       1517.1900        62.083200        29.964400
       1541.7300        62.569500        29.496100
       1566.6700        62.998600        29.034300
       1592.0100        63.393900        28.578800
       1617.7600        63.761800        28.129900
       1643.9200        64.106500        27.687200
       1670.5100        64.431400        27.250900
       1697.5300        64.739300        26.820800
       1724.9900        65.043900        26.396500
       1752.8900        65.331900        25.955000
       1781.2400        65.594200        25.512600
       1810.0500        65.833000        25.071200
       1839.3200        66.049000        24.636300
       1869.0700        66.246900        24.208500
       1899.3000        66.428200        23.787600
       1930.0200        66.593900        23.373300
       1961.2400        66.744800        22.966000
       1992.9600        66.877900        22.565400
       2025.2000        67.016400        22.184200
       2057.9500        67.144800        21.780700
       2091.2400        67.248400        21.380100
       2125.0600        67.334700        20.983700
       2159.4300        67.404900        20.591700
       2194.3600        67.459100        20.203000
       2229.8500        67.496400        19.817900
       2265.9200        67.516500        19.436700
       2302.5700        67.518500        19.059900
       2339.8100        67.503500        18.688200
       2377.6600        67.470100        18.319600
       2416.1100        67.417100        17.955600
       2455.1900        67.343800        17.595700
       2494.9000        67.249500        17.240600
       2535.2600        67.132200        16.889100
       2576.2600        66.990600        16.542500
       2617.9300        66.823000        16.200400
       2660.2700        66.627000        15.862500
       2703.3000        66.399500        15.528600
       2747.0300        66.137300        15.199400
       2791.4600        65.836100        14.874400
       2836.6100        65.490700        14.554200
       2882.4900        65.094900        14.238000
       2929.1100        64.639800        13.926300
       2976.4800        64.114400        13.619000
       3024.6300        63.504000        13.316200
       3073.5500        62.788300        13.017500
       3123.2600        61.937100        12.722800
       3173.7800        60.905600        12.432600
       3225.1100        59.620600        12.146800
       3277.2700        57.949500        11.864900
       3330.2800        55.607200        11.586900
       3384.1500        51.740300        11.313000
       3438.8800        35.570300        11.044500
       3441.7000        17.860800        11.030900
       3441.9000        17.863800        27.526400
       3494.5000        49.841400        26.843100
       3551.0200        51.351800        26.138800
       3608.4600        40.773900        25.453800
       3611.1000        26.565900        25.423000
       3611.3000        26.576600        39.023700
       3666.8200        55.920300        38.049100
       3726.1300        60.573600        37.050600
       3786.4000        63.561800        36.079600
       3847.6400        65.766300        35.136200
       3909.8700        67.473600        34.219500
       3973.1100        68.804300        33.328500
       4037.3800        69.789300        32.461600
       4102.6800        70.328500        31.620300
       4169.0300        68.689600        30.803300
       4173.7000        64.931200        30.747100
       4173.9000        64.934000        33.855700
       4236.4600        72.157700        33.124100
       4304.9800        73.707600        32.352800
       4374.6200        74.857200        31.598400
       4445.3700        75.803900        30.863700
       4517.2700        76.611300        30.145000
       4590.3300        77.307200        29.444600
       4664.5800        77.907300        28.761300
       4740.0300        78.414900        28.093700
       4816.6900        78.821100        27.441800
       4894.6000        79.082800        26.804100
       4973.7700        78.927500        26.181600
       5000.8000        76.553200        25.974600
       5001.0000        76.554200        27.385700
       5054.2100        79.641800        26.983400
       5135.9600        80.414400        26.384800
       5219.0300        80.916000        25.799600
       5303.4400        81.368100        25.227200
       5366.8000        80.151800        24.811700
       5367.0000        80.157900        25.734000
       5389.2200        81.411100        25.585800
       5476.3900        82.286000        25.018400
       5564.9700        82.854000        24.460800
       5654.9800        83.326400        23.911500
       5746.4400        83.740600        23.370100
       5839.3900        84.111700        22.837600
       5933.8300        84.447900        22.313800
       6029.8100        84.754500        21.798600
       6127.3300        85.034700        21.292400
       6226.4400        85.291400        20.794800
       6327.1500        85.526500        20.306400
       6429.4800        85.742200        19.827200
       6533.4800        85.939800        19.356700
       6639.1500        86.120700        18.895300
       6746.5400        86.285800        18.442800
       6855.6500        86.436300        17.999500
       6966.5400        86.573200        17.564800
       7079.2200        86.697000        17.139300
       7193.7200        86.808900        16.722400
       7310.0700        86.909400        16.314500
       7428.3100        86.999300        15.915000
       7548.4500        87.078800        15.524300
       7670.5400        87.149000        15.142300
       7794.6100        87.210400        14.768500
       7920.6800        87.263100        14.402900
       8048.7900        87.307800        14.045900
       8178.9800        87.345000        13.696700
       8311.2600        87.375100        13.355800
       8445.6900        87.398700        13.022600
       8582.2900        87.415900        12.697200
       8721.1100        87.427300        12.379700
       8862.1600        87.433500        12.069700
       9005.5000        87.434600        11.766800
       9151.1600        87.431300        11.471500
       9299.1700        87.424200        11.183200
       9449.5800        87.413800        10.901800
       9602.4200        87.401600        10.627900
       9757.7300        87.388700        10.360300
       9915.5500        87.396400        10.099400
       10075.900        87.401900        9.7933800
       10238.900        87.358300        9.4979800
       10404.500        87.304400        9.2130900
       10572.800        87.238900        8.9385400
       10743.800        87.163700        8.6742200
       10917.600        87.079900        8.4199300
       11094.200        86.988400        8.1755200
       11273.600        86.889900        7.9408200
       11455.900        86.785000        7.7156500
       11641.200        86.673900        7.4998300
       11829.500        86.557000        7.2931700
       12020.800        86.434500        7.0955000
       12215.300        86.306500        6.9066100
       12412.800        86.172900        6.7263200
       12613.600        86.033700        6.5544300
       12817.600        85.888700        6.3907500
       13025.000        85.737400        6.2350900
       13235.600        85.579500        6.0872500
       13449.700        85.414200        5.9470500
       13667.200        85.240400        5.8142700
       13888.300        85.057100        5.6887500
       14112.900        84.862400        5.5702700
       14341.200        84.654000        5.4586600
       14573.100        84.428700        5.3537200
       14808.900        84.182100        5.2552800
       15048.400        83.907500        5.1631400
       15291.800        83.594900        5.0771200
       15539.100        83.228100        4.9970400
       15790.400        82.778500        4.9227300
       16045.800        82.187900        4.8540100
       16305.400        81.309400        4.7907000
       16569.100        79.520900        4.7326400
       16733.000        65.037700        4.6973700
       16733.200        65.038300        10.898200
       16837.100        78.850900        10.782500
       17109.400        81.488800        10.488300
       17386.100        82.601100        10.202100
       17667.400        83.284900        9.9237700
       17953.100        83.749200        9.6530100
       18243.500        84.070400        9.3896300
       18538.600        84.282000        9.1334600
       18838.400        84.397000        8.8842700
       19143.100        84.413000        8.6418900
       19452.700        84.307700        8.4061300
       19767.400        84.011300        8.1768100
       20087.100        83.247400        7.9537500
       20313.600        75.541300        7.8014800
       20313.800        75.542000        11.023100
       20412.000        82.478000        10.944300
       20742.100        83.957600        10.686000
       21077.600        83.633100        10.433700
       21104.500        81.751900        10.413900
       21104.700        81.753000        11.709100
       21418.500        85.198400        11.472000
       21765.000        85.930800        11.219800
       22117.000        86.462700        10.970700
       22474.700        86.892800        10.724900
       22838.200        87.256700        10.482400
       23207.600        87.572500        10.243300
       23583.000        87.851000        10.007800
       23964.400        88.099300        9.7758800
       24352.000        88.322400        9.5476400
       24745.900        88.523900        9.3231300
       25146.200        88.706800        9.1023800
       25552.900        88.873100        8.8854400
       25966.200        89.024800        8.6723300
       26386.100        89.163300        8.4630600
       26812.900        89.289900        8.2576500
       27246.600        89.405700        8.0561100
       27687.300        89.511700        7.8584300
       28135.100        89.608600        7.6646000
       28590.200        89.697500        7.4746300
       29052.600        89.779800        7.2884800
       29522.500        89.873000        7.1061300
       30000.000        89.862300        6.9275700
       30100.000        89.638600        6.3974400
       30200.000        89.650100        6.3637600
       30300.000        89.661200        6.3300700
       30400.000        89.672000        6.2963900
       30500.000        89.682500        6.2638400
       30600.000        89.692800        6.2312800
       30700.000        89.702800        6.1987300
       30800.000        89.712500        6.1661800
       30900.000        89.722100        6.1347100
       31000.000        89.731400        6.1032400
       31100.000        89.740500        6.0717700
       31200.000        89.749300        6.0403000
       31350.000        89.762300        5.9944500
       31500.000        89.775000        5.9486000
       31600.000        89.783300        5.9185900
       31700.000        89.791200        5.8885800
       31800.000        89.798900        5.8585800
       31900.000        89.806300        5.8285700
       32000.000        89.813600        5.7995300
       32100.000        89.820600        5.7704900
       32300.000        89.834200        5.7124100
       32450.000        89.843900        5.6700700
       32600.000        89.853200        5.6277300
       32800.000        89.865200        5.5728400
       33000.000        89.876800        5.5179400
       33200.000        89.887700        5.4641900
       33400.000        89.897800        5.4104400
       33600.000        89.907200        5.3583500
       33800.000        89.916000        5.3062700
       33950.000        89.922300        5.2682600
       34100.000        89.928200        5.2302500
       34300.000        89.935600        5.1809200
       34500.000        89.942600        5.1315900
       34700.000        89.949000        5.0837400
       34900.000        89.954900        5.0359000
       35100.000        89.960100        4.9898600
       35300.000        89.965200        4.9438200
       35700.000        89.974800        4.8546700
       36030.000        89.981800        4.7830700
       36300.000        89.987000        4.7261600
       36500.000        89.990500        4.6840100
       36800.000        89.995300        4.6229400
       37000.000        89.998200        4.5822200
       37300.000        90.002200        4.5232700
       37500.000        90.004600        4.4839700
       37800.000        90.007900        4.4270400
       38000.000        90.010000        4.3890800
       38300.000        90.012700        4.3335400
       38500.000        90.014100        4.2965200
       38800.000        90.015800        4.2428400
       39000.000        90.016700        4.2070600
       39500.000        90.018200        4.1205700
       39800.000        90.018700        4.0703800
       40000.000        90.019000        4.0369200
       40400.000        90.019000        3.9720000
       40800.000        90.018000        3.9070700
       41100.000        90.016800        3.8607000
       41500.000        90.014700        3.7988700
       41900.000        90.012100        3.7399300
       42300.000        90.009000        3.6809900
       42600.000        90.006400        3.6388200
       43000.000        90.002600        3.5825900
       43400.000        89.998400        3.5288500
       43800.000        89.993900        3.4751100
       44500.000        89.985200        3.3852500
       45300.000        89.974500        3.2869400
       46000.000        89.964100        3.2044600
       46500.000        89.956300        3.1475600
       47000.000        89.948200        3.0922700
       47500.000        89.939800        3.0392500
       48000.000        89.931400        2.9862400
       48500.000        89.922400        2.9360900
       49000.000        89.913400        2.8859300
       49500.000        89.904400        2.8377800
       50000.000        89.895300        2.7909100
       50500.000        89.886100        2.7453900
       51000.000        89.876500        2.6998700
       51500.000        89.866700        2.6566700
       52000.000        89.856800        2.6134800
       53000.000        89.836500        2.5314200
       54000.000        89.815900        2.4534100
       55000.000        89.795000        2.3791600
       56000.000        89.773900        2.3081900
       56800.000        89.756800        2.2538100
       57530.000        89.741100        2.2059500
       58000.000        89.730900        2.1759800
       58500.000        89.720100        2.1448200
       59540.000        89.697600        2.0822200
       59800.000        89.692000        2.0670300
       60000.000        89.687700        2.0554600
       60800.000        89.670100        2.0099800
       61500.000        89.654700        1.9714900
       62300.000        89.637200        1.9289100
       63000.000        89.621800        1.8928500
       64000.000        89.599800        1.8431500
       65000.000        89.577900        1.7955100
       65900.000        89.558100        1.7541700
       66830.000        89.537700        1.7130300
       67000.000        89.533900        1.7056700
       67186.200        89.529800        1.6976700
       68600.000        89.498400        1.6388300
       69300.000        89.482900        1.6108900
       70000.000        89.467300        1.5837000
       71000.000        89.445000        1.5459600
       72000.000        89.422600        1.5096300
       73500.000        89.388600        1.4576100
       74960.000        89.355400        1.4096600
       75500.000        89.343000        1.3925600
       76000.000        89.331500        1.3770200
       77110.000        89.305800        1.3434800
       78600.000        89.270800        1.3004600
       79300.000        89.254200        1.2810000
       80000.000        89.237500        1.2619900
       81500.000        89.201100        1.2226200
       83000.000        89.163900        1.1851600
       84000.000        89.138500        1.1611900
       85000.000        89.112600        1.1379800
       86500.000        89.072800        1.1045200
       88000.000        89.031500        1.0725900
       89000.000        89.003000        1.0521100
       90000.000        88.973800        1.0322400
       90800.000        88.949700        1.0168800
       91500.000        88.928000        1.0034400
       92300.000        88.902600       0.98874700
       93000.000        88.879700       0.97589100
       94000.000        88.845900       0.95818600
       94500.000        88.828400       0.94958500
       95000.000        88.810500       0.94098400
       95800.000        88.780900       0.92770300
       96500.000        88.754100       0.91608300
       97300.000        88.722100       0.90335100
       98000.000        88.692900       0.89221000
       98500.000        88.671300       0.88452400
       99000.000        88.649000       0.87683800
       99500.000        88.625900       0.86935900
       100000.00        88.602000       0.86188000
