;  Atomic scattering factors for Pb.
;   
;  Concatenation of data from CXRO <http://www-cxro.lbl.gov>
;  and LLNL <http://www-phys.llnl.gov/V_Div/scattering/asf.html>
;  
;  E (eV) f1 f2
;---------------
       10.000000       -9999.0000        4.6699000
       10.161700       -9999.0000        4.7273500
       10.326100       -9999.0000        4.7855100
       10.493100       -9999.0000        4.8443900
       10.662800       -9999.0000        4.8395700
       10.835300       -9999.0000        4.8320300
       11.010600       -9999.0000        4.8245100
       11.188600       -9999.0000        4.8170000
       11.369600       -9999.0000        4.7889000
       11.553500       -9999.0000        4.7596000
       11.740400       -9999.0000        4.7304700
       11.930300       -9999.0000        4.7030200
       12.123200       -9999.0000        4.6837000
       12.319300       -9999.0000        4.6644600
       12.518600       -9999.0000        4.6453000
       12.721000       -9999.0000        4.6253600
       12.926800       -9999.0000        4.4425700
       13.135900       -9999.0000        4.2669900
       13.348300       -9999.0000        4.0983700
       13.564200       -9999.0000        3.8820000
       13.783600       -9999.0000        3.6392100
       14.006600       -9999.0000        3.4115900
       14.233100       -9999.0000        3.1776600
       14.463300       -9999.0000        2.9436500
       14.697300       -9999.0000        2.7268800
       14.935000       -9999.0000        2.4707600
       15.176500       -9999.0000        2.2167800
       15.422000       -9999.0000        2.0114300
       15.671400       -9999.0000        1.9037800
       15.924900       -9999.0000        1.8018900
       16.182500       -9999.0000        1.7054600
       16.444200       -9999.0000        1.6365600
       16.710200       -9999.0000        1.5857000
       16.980500       -9999.0000        1.5553300
       17.255100       -9999.0000        1.5705200
       17.534200       -9999.0000        1.6067300
       17.817800       -9999.0000        1.7178600
       18.106000       -9999.0000        1.9833500
       18.398900       -9999.0000        3.1490000
       18.696400       -9999.0000        3.9129800
       18.998800       -9999.0000        4.1050600
       19.306100       -9999.0000        4.3065800
       19.618400       -9999.0000        4.4752100
       19.935700       -9999.0000        4.6249300
       20.258200       -9999.0000        4.7796600
       20.585800       -9999.0000        4.8703900
       20.918800       -9999.0000        4.9155600
       21.257100       -9999.0000        4.9611600
       21.600900       -9999.0000        5.0071800
       21.950300       -9999.0000        4.9674900
       22.305300       -9999.0000        4.9071200
       22.666100       -9999.0000        4.8474900
       23.032700       -9999.0000        4.8002100
       23.405300       -9999.0000        4.7716600
       23.783800       -9999.0000        4.7432900
       24.168500       -9999.0000        4.7150800
       24.559400       -9999.0000        4.6925400
       24.956600       -9999.0000        4.6740000
       25.360300       -9999.0000        4.6555300
       25.770500       -9999.0000        4.6638000
       26.187300       -9999.0000        4.7189400
       26.610900       -9999.0000        4.7747200
       27.041300       -9999.0000        4.8587300
       27.478600       -9999.0000        5.0025700
       27.923100       -9999.0000        5.1506800
       28.374700       -9999.0000        5.3031600
       28.833700       -9999.0000        5.4601700
       29.300000     -0.019046900        5.6218200
       29.773900      -0.19799600        5.8194300
       30.255500      -0.35036900        6.0605200
       30.744900      -0.48437400        6.3115900
       31.242100      -0.60747700        6.5730700
       31.747500      -0.72167500        6.8453800
       32.260900      -0.82842600        7.1289700
       32.782700      -0.92810500        7.4243000
       33.313000       -1.0244600        7.7318700
       33.851800       -1.1120000        8.0611100
       34.399300       -1.1866900        8.4054900
       34.955700       -1.2487700        8.7645700
       35.521100       -1.2979200        9.1390000
       36.095600       -1.3319600        9.5294200
       36.679400       -1.3488800        9.9365100
       37.272700       -1.3442200        10.361000
       37.875500       -1.2947800        10.803600
       38.488200       -1.2295300        11.210200
       39.110700       -1.1671100        11.627700
       39.743200       -1.0939500        12.060600
       40.386100       -1.0039400        12.509700
       41.039300      -0.89064500        12.975500
       41.703100      -0.74592300        13.458700
       42.377600      -0.54357600        13.959800
       43.063000      -0.29652900        14.393300
       43.759500     -0.063382300        14.807800
       44.467300       0.16285100        15.234300
       45.186500       0.40463600        15.673000
       45.917400       0.67042800        16.124400
       46.660000       0.97784700        16.588800
       47.414700        1.3565500        17.008300
       48.181600        1.7133300        17.374300
       48.960900        2.0492200        17.748100
       49.752800        2.3928300        18.130000
       50.557600        2.7497900        18.520100
       51.375300        3.1262400        18.918600
       52.206200        3.5284600        19.325700
       53.050600        3.9646500        19.741600
       53.908700        4.4962400        20.166400
       54.780600        5.0377800        20.461800
       55.666700        5.5464000        20.754600
       56.567000        6.0559700        21.051600
       57.482000        6.5796800        21.352800
       58.411700        7.1284600        21.658400
       59.356400        7.7171300        21.968300
       60.316500        8.3929200        22.282600
       61.292100        9.1179100        22.441400
       62.283400        9.7951500        22.547400
       63.290800        10.438500        22.654000
       64.314500        11.090200        22.761100
       65.354700        11.814100        22.868600
       66.411800        12.574700        22.838500
       67.485900        13.244600        22.725600
       68.577500        13.860100        22.613400
       69.686700        14.446400        22.501600
       70.813800        15.012900        22.390500
       71.959100        15.567400        22.283600
       73.123000        16.118100        22.178700
       74.305700        16.670200        22.074400
       75.507600        17.228800        21.970600
       76.728900        17.801600        21.867300
       77.969900        18.397200        21.764400
       79.231000        19.118400        21.662000
       80.512500        19.824600        21.331600
       81.814700        20.416900        20.972000
       83.138000        20.956100        20.618500
       84.482700        21.465900        20.270900
       85.849100        21.959700        19.929200
       87.237700        22.449300        19.593300
       88.648700        22.944500        19.263000
       90.082500        23.579600        18.917000
       91.539500        24.131100        18.332400
       93.020100        24.546000        17.765800
       94.524600        24.906700        17.216800
       96.053500        25.234100        16.684700
       97.607100        25.549400        16.169100
       99.185800        25.901600        15.611100
       100.79000        26.172100        14.981700
       102.42000        26.358000        14.377600
       104.07700        26.509900        13.797900
       105.76000        26.644900        13.241600
       107.47100        26.802600        12.707800
       109.20900        26.999000        12.048100
       110.97500        27.051500        11.295700
       112.77000        26.956200        10.590300
       114.59400        26.786600        9.9290100
       116.44800        26.462400        9.3337700
       118.33100        26.163200        8.9279200
       120.24500        25.925200        8.5397000
       122.19000        25.688400        8.1683700
       124.16600        25.444100        7.8132000
       126.17500        25.187400        7.4734500
       128.21500        24.845700        7.1567600
       130.28900        24.538200        6.9880100
       132.39700        24.299600        6.8232500
       134.53800        24.084800        6.6623600
       136.71400        23.886400        6.5052700
       138.92500        23.701100        6.3518800
       141.17200        23.530000        6.2021200
       143.45600        23.392500        6.0558800
       145.77600        23.249900        5.8343400
       148.13400        23.065600        5.6029400
       150.53000        22.841000        5.3807100
       152.96400        22.578200        5.1672900
       155.43900        22.300000        5.0063700
       157.95300        22.023900        4.8596800
       160.50700        21.744900        4.7172900
       163.10300        21.452800        4.5790700
       165.74200        21.111400        4.4449000
       168.42200        20.765900        4.3836600
       171.14600        20.440800        4.3306500
       173.91500        20.112300        4.2782800
       176.72700        19.745800        4.2265400
       179.58600        19.352700        4.2321400
       182.49100        18.988800        4.2842500
       185.44200        18.639300        4.3370100
       188.44200        18.278200        4.3922900
       191.48900        17.911700        4.4633000
       194.58700        17.506900        4.5354500
       197.73400        17.079400        4.6727900
       200.93200        16.673000        4.8510900
       204.18200        16.256400        5.0361900
       207.48500        15.821700        5.2902600
       210.84000        15.417200        5.5958200
       214.25100        15.044300        5.9190300
       217.71600        14.684200        6.2609100
       221.23700        14.322200        6.6225300
       224.81600        13.961900        7.0279400
       228.45200        13.628600        7.4820000
       232.14700        13.324600        7.9654200
       235.90200        13.047300        8.4800500
       239.71700        12.803400        9.0279300
       243.59500        12.602900        9.6112300
       247.53500        12.496400        10.232200
       251.53800        12.420400        10.741700
       255.60700        12.324300        11.255600
       259.74100        12.217100        11.794200
       263.94200        12.122300        12.358400
       268.21100        12.046600        12.949700
       272.54900        12.008100        13.569300
       276.95700        11.995000        14.179300
       281.43700        11.996700        14.808400
       285.98900        12.018600        15.465300
       290.61500        12.075500        16.151400
       295.31500        12.177400        16.868000
       300.09200        12.331300        17.616300
       304.94500        12.695400        18.395100
       309.87800        13.061100        18.917500
       314.89000        13.333100        19.454700
       319.98300        13.596000        20.007200
       325.15800        13.862800        20.575300
       330.41800        14.144100        21.159600
       335.76200        14.447500        21.760400
       341.19200        14.788700        22.378400
       346.71100        15.159600        22.988300
       352.31900        15.564800        23.614800
       358.01700        16.020600        24.258400
       363.80800        16.552100        24.919600
       369.69200        17.295300        25.506500
       375.67200        17.993600        25.852600
       381.74800        18.570000        26.203400
       387.92200        19.136200        26.559000
       394.19700        19.712300        26.919300
       400.57300        20.343600        27.265100
       407.05200        20.943400        27.505000
       413.63500        21.499300        27.747000
       420.32600        22.037300        27.991100
       427.12400        22.566700        28.237300
       434.03200        23.083000        28.485700
       441.05200        23.603000        28.754800
       448.18600        24.140900        29.030100
       455.43500        24.697000        29.308100
       462.80200        25.276700        29.588700
       470.28700        25.882600        29.872000
       477.89400        26.617400        30.158100
       485.62300        27.369300        30.258400
       493.47800        28.024700        30.301100
       501.45900        28.634500        30.343900
       509.57000        29.219800        30.386700
       517.81200        29.790000        30.429600
       526.18700        30.353500        30.472600
       534.69800        30.924800        30.509800
       543.34600        31.478100        30.511400
       552.13400        32.008800        30.513000
       561.06500        32.526600        30.514600
       570.13900        33.034900        30.516200
       579.36100        33.536000        30.517800
       588.73200        34.032500        30.519400
       598.25400        34.529600        30.516100
       607.93000        35.017100        30.501800
       617.76300        35.491500        30.487600
       627.75500        35.957300        30.473300
       637.90800        36.412900        30.459100
       648.22600        36.846100        30.444900
       658.71100        37.276800        30.475400
       669.36500        37.727100        30.517100
       680.19100        38.195700        30.558900
       691.19300        38.675900        30.600700
       702.37200        39.168600        30.642600
       713.73300        39.676300        30.684600
       725.27700        40.204600        30.726600
       737.00800        40.778900        30.768700
       748.92800        41.364200        30.728400
       761.04200        41.926300        30.671600
       773.35100        42.476600        30.614800
       785.85900        43.040500        30.558100
       798.57000        43.626300        30.458900
       811.48600        44.186100        30.313300
       824.61100        44.707500        30.168400
       837.94900        45.216100        30.024200
       851.50200        45.707900        29.870800
       865.27400        46.157600        29.731300
       879.26900        46.629900        29.675400
       893.49100        47.157000        29.618800
       907.94300        47.733400        29.562100
       922.62800        48.420600        29.505300
       937.55100        49.130900        29.235600
       952.71500        49.777800        28.911400
       968.12400        50.349100        28.541200
       983.78300        50.871700        28.174900
       999.69500        51.369300        27.806900
       1015.8600        51.862900        27.436900
       1032.2900        52.320400        27.006600
       1048.9900        52.727800        26.579900
       1065.9600        53.099300        26.157200
       1083.2000        53.442100        25.740300
       1100.7200        53.760000        25.329900
       1118.5200        54.056600        24.925800
       1136.6100        54.333500        24.527500
       1155.0000        54.592100        24.135100
       1173.6800        54.833700        23.748600
       1192.6600        55.059200        23.368000
       1211.9500        55.269500        22.993200
       1231.5500        55.464800        22.624300
       1251.4700        55.645600        22.262500
       1271.7200        55.813600        21.908100
       1292.2900        55.971200        21.561400
       1313.1900        56.118700        21.219800
       1334.4300        56.255900        20.883400
       1356.0100        56.382900        20.552000
       1377.9400        56.500100        20.225500
       1400.2300        56.607900        19.903900
       1422.8800        56.706900        19.587000
       1445.8900        56.798800        19.275100
       1469.2800        56.885900        18.964500
       1493.0400        56.969700        18.653300
       1517.1900        57.038200        18.324600
       1541.7300        57.083500        17.998600
       1566.6700        57.109800        17.678100
       1592.0100        57.120200        17.363300
       1617.7600        57.115700        17.054000
       1643.9200        57.096200        16.749600
       1670.5100        57.061800        16.450700
       1697.5300        57.012500        16.157100
       1724.9900        56.953400        15.868600
       1752.8900        56.878000        15.574400
       1781.2400        56.778700        15.282000
       1810.0500        56.656400        14.992000
       1839.3200        56.509300        14.707800
       1869.0700        56.338000        14.429000
       1899.3000        56.140700        14.155300
       1930.0200        55.915400        13.886900
       1961.2400        55.659200        13.623500
       1992.9600        55.366800        13.365000
       2025.2000        55.043400        13.118500
       2057.9500        54.679700        12.863200
       2091.2400        54.257100        12.610300
       2125.0600        53.772000        12.361100
       2159.4300        53.211700        12.115300
       2194.3600        52.559300        11.873000
       2229.8500        51.791100        11.634000
       2265.9200        50.872500        11.398900
       2302.5700        49.749200        11.166800
       2339.8100        48.330000        10.938500
       2377.6600        46.442100        10.713200
       2416.1100        43.681700        10.491200
       2455.1900        38.580200        10.272700
       2483.9000        7.5553600        10.117200
       2484.1000        7.5554500        27.100500
       2494.9000        32.722400        26.928500
       2535.2600        39.491200        26.302100
       2576.2600        36.948800        25.692200
       2585.5000        20.842800        25.558000
       2585.7000        20.858200        37.162600
       2617.9300        44.058600        36.503500
       2660.2700        48.925800        35.667100
       2703.3000        51.965100        34.851200
       2747.0300        54.203500        34.054500
       2791.4600        55.951700        33.277100
       2836.6100        57.346800        32.518800
       2882.4900        58.453300        31.778700
       2929.1100        59.286500        31.055900
       2976.4800        59.796700        30.350100
       3024.6300        59.878200        29.660700
       3066.3000        52.205500        29.085100
       3066.5000        52.219800        33.722600
       3073.5500        58.150400        33.610200
       3123.2600        61.996500        32.834700
       3173.7800        63.667600        32.077400
       3225.1100        64.885600        31.338900
       3277.2700        65.862700        30.617200
       3330.2800        66.669000        29.912600
       3384.1500        67.331800        29.225700
       3438.8800        67.847300        28.554700
       3494.5000        68.148500        27.899500
       3551.0200        67.198400        27.259200
       3554.1000        65.418500        27.225000
       3554.3000        65.420700        28.868100
       3608.4600        69.209500        28.257700
       3666.8200        70.040400        27.624100
       3726.1300        70.632500        27.003900
       3786.4000        71.201800        26.398800
       3847.6400        70.595700        25.808200
       3850.6000        70.001400        25.780200
       3850.8000        70.010500        26.902900
       3909.8700        72.074900        26.330700
       3973.1100        72.788600        25.740900
       4037.3800        73.359000        25.163700
       4102.6800        73.853200        24.595200
       4169.0300        74.292300        24.038000
       4236.4600        74.688800        23.491500
       4304.9800        75.050100        22.955500
       4374.6200        75.380400        22.429900
       4445.3700        75.683800        21.914400
       4517.2700        75.962400        21.408600
       4590.3300        76.218700        20.914000
       4664.5800        76.455300        20.428500
       4740.0300        76.673000        19.953100
       4816.6900        76.873400        19.487400
       4894.6000        77.057700        19.031300
       4973.7700        77.227100        18.584800
       5054.2100        77.382500        18.147400
       5135.9600        77.524600        17.719500
       5219.0300        77.654600        17.300700
       5303.4400        77.773000        16.890800
       5389.2200        77.880500        16.489900
       5476.3900        77.977800        16.097400
       5564.9700        78.065300        15.713800
       5654.9800        78.143700        15.338600
       5746.4400        78.213700        14.971600
       5839.3900        78.275300        14.612700
       5933.8300        78.329100        14.262000
       6029.8100        78.375700        13.919100
       6127.3300        78.415300        13.583700
       6226.4400        78.448100        13.256200
       6327.1500        78.474800        12.936100
       6429.4800        78.495400        12.623100
       6533.4800        78.510200        12.317400
       6639.1500        78.519600        12.018800
       6746.5400        78.523700        11.726900
       6855.6500        78.522700        11.442000
       6966.5400        78.517100        11.163500
       7079.2200        78.506600        10.891600
       7193.7200        78.491800        10.625900
       7310.0700        78.472400        10.366500
       7428.3100        78.448900        10.113400
       7548.4500        78.421500        9.8659800
       7670.5400        78.390000        9.6244500
       7794.6100        78.354500        9.3886200
       7920.6800        78.315200        9.1585700
       8048.7900        78.272100        8.9335700
       8178.9800        78.225000        8.7141400
       8311.2600        78.174200        8.5000100
       8445.6900        78.119800        8.2910000
       8582.2900        78.061400        8.0867500
       8721.1100        77.999200        7.8875500
       8862.1600        77.932800        7.6928900
       9005.5000        77.862200        7.5032300
       9151.1600        77.787700        7.3178400
       9299.1700        77.708600        7.1370000
       9449.5800        77.625000        6.9604100
       9602.4200        77.536600        6.7881100
       9757.7300        77.443400        6.6199500
       9915.5500        77.346900        6.4559700
       10075.900        77.244800        6.2868500
       10238.900        77.128600        6.1220900
       10404.500        77.002400        5.9616000
       10572.800        76.865100        5.8052800
       10743.800        76.715500        5.6530500
       10917.600        76.552000        5.5048100
       11094.200        76.372400        5.3604800
       11273.600        76.173600        5.2199500
       11455.900        75.951300        5.0831600
       11641.200        75.699700        4.9500100
       11829.500        75.409900        4.8204000
       12020.800        75.068200        4.6942700
       12215.300        74.652000        4.5715300
       12412.800        74.118500        4.4520900
       12613.600        73.372700        4.3358800
       12817.600        72.127300        4.2228200
       13025.000        66.265600        4.1128300
       13035.100        57.392500        4.1075600
       13035.300        57.393400        10.218200
       13235.600        72.121100        9.9498800
       13449.700        73.510700        9.6752100
       13667.200        74.255500        9.4081200
       13888.300        74.715700        9.1484100
       14112.900        74.995500        8.8958700
       14341.200        75.129200        8.6503200
       14573.100        75.111600        8.4115300
       14808.900        74.880200        8.1793500
       15048.400        74.134000        7.9535700
       15199.900        67.154800        7.8157800
       15200.100        67.155700        10.897100
       15291.800        73.760100        10.801400
       15539.100        75.024400        10.549900
       15790.400        75.087600        10.304300
       15860.700        72.198100        10.237400
       15860.900        72.198700        11.704800
       16045.800        76.111900        11.506000
       16305.400        76.963700        11.236500
       16569.100        77.548000        10.971600
       16837.100        78.010900        10.711400
       17109.400        78.397900        10.455900
       17386.100        78.730800        10.205100
       17667.400        79.022300        9.9589600
       17953.100        79.280500        9.7175400
       18243.500        79.511100        9.4807900
       18538.600        79.718300        9.2487200
       18838.400        79.905300        9.0212700
       19143.100        80.074600        8.7984500
       19452.700        80.228300        8.5802000
       19767.400        80.368000        8.3664800
       20087.100        80.495200        8.1572600
       20412.000        80.611000        7.9525000
       20742.100        80.716500        7.7521500
       21077.600        80.812600        7.5561500
       21418.500        80.900100        7.3644600
       21765.000        80.979600        7.1770100
       22117.000        81.051800        6.9937700
       22474.700        81.117300        6.8146500
       22838.200        81.176500        6.6396100
       23207.600        81.229900        6.4685800
       23583.000        81.277900        6.3015000
       23964.400        81.321000        6.1383200
       24352.000        81.359400        5.9789500
       24745.900        81.393400        5.8233400
       25146.200        81.423400        5.6714200
       25552.900        81.449700        5.5231400
       25966.200        81.472400        5.3784100
       26386.100        81.491800        5.2371800
       26812.900        81.508200        5.0993800
       27246.600        81.521700        4.9649400
       27687.300        81.532500        4.8338000
       28135.100        81.540800        4.7059000
       28590.200        81.546800        4.5811600
       29052.600        81.550600        4.4595300
       29522.500        81.552300        4.3409300
       30000.000        81.552100        4.2253100
       30200.000        81.388700        4.2115200
       30400.000        81.388800        4.1651000
       30600.000        81.388500        4.1202700
       30800.000        81.387800        4.0754500
       31200.000        81.385900        3.9888500
       31500.000        81.384000        3.9258100
       31900.000        81.380500        3.8436200
       32300.000        81.376000        3.7641400
       32600.000        81.372100        3.7062300
       33000.000        81.366300        3.6312100
       33400.000        81.359900        3.5583900
       33800.000        81.352700        3.4878600
       34100.000        81.347000        3.4364200
       34500.000        81.339000        3.3696900
       34900.000        81.330600        3.3050000
       35300.000        81.321800        3.2422500
       35700.000        81.312600        3.1813700
       36030.000        81.304800        3.1325000
       36500.000        81.293400        3.0649400
       37000.000        81.280900        2.9955800
       37500.000        81.268100        2.9287000
       38000.000        81.255300        2.8641600
       38500.000        81.242000        2.8014500
       39000.000        81.228600        2.7408900
       39500.000        81.214900        2.6823900
       40000.000        81.201100        2.6258600
       40800.000        81.178600        2.5387000
       41500.000        81.158400        2.4661500
       42300.000        81.135100        2.3871800
       43000.000        81.114600        2.3213200
       43800.000        81.090900        2.2492100
       44500.000        81.070200        2.1889800
       45300.000        81.046300        2.1231100
       46000.000        81.025400        2.0678500
       46500.000        81.010300        2.0297600
       47000.000        80.995200        1.9927600
       47500.000        80.980100        1.9568200
       48000.000        80.965000        1.9219000
       48500.000        80.949900        1.8879500
       49000.000        80.934800        1.8549400
       50000.000        80.904700        1.7915900
       50600.000        80.886600        1.7549900
       51100.000        80.871500        1.7253800
       51600.000        80.856400        1.6965500
       52101.800        80.841300        1.6683800
       52900.000        80.817100        1.6250600
       53600.000        80.795800        1.5885100
       54300.000        80.774600        1.5532400
       55000.000        80.753400        1.5191900
       55600.000        80.735000        1.4907800
       56300.000        80.713500        1.4586900
       56900.000        80.695200        1.4320300
       57530.000        80.675900        1.4048600
       58000.000        80.661300        1.3851100
       58500.000        80.645800        1.3645800
       59540.000        80.613200        1.3233900
       59800.000        80.605100        1.3133900
       60000.000        80.598800        1.3057900
       60800.000        80.573300        1.2759200
       61500.000        80.551000        1.2506700
       62300.000        80.525100        1.2227500
       63000.000        80.502100        1.1991200
       64000.000        80.468800        1.1665800
       65000.000        80.434800        1.1354200
       65900.000        80.403500        1.1084200
       66830.000        80.370500        1.0815700
       67400.000        80.349700        1.0656200
       68000.000        80.327600        1.0492200
       69000.000        80.289600        1.0227600
       70000.000        80.250300       0.99732700
       71000.000        80.209400       0.97276600
       71500.000        80.188300       0.96095400
       72000.000        80.166600       0.94914200
       72800.000        80.130800       0.93112200
       73500.000        80.098200       0.91535500
       74200.000        80.064200       0.90044000
       74960.000        80.025600       0.88424700
       75200.000        80.013000       0.87931900
       75500.000        79.996900       0.87316000
       76000.000        79.969400       0.86308700
       76600.000        79.935000       0.85134600
       77110.000        79.904400       0.84136600
       77500.000        79.880100       0.83408000
       77900.000        79.854300       0.82660800
       78300.000        79.827500       0.81913500
       78600.000        79.806800       0.81353100
       79000.000        79.778100       0.80634100
       79300.000        79.755700       0.80094900
       79700.000        79.724800       0.79393300
       79850.000        79.712800       0.79130200
       80000.000        79.700600       0.78867100
       80500.000        79.658300       0.78010600
       81000.000        79.613100       0.77154000
       81300.000        79.584500       0.76657300
       81500.000        79.564600       0.76326200
       81800.000        79.533800       0.75829500
       82000.000        79.512400       0.75498400
       82300.000        79.478900       0.75018200
       82500.000        79.455600       0.74698100
       82800.000        79.419100       0.74217900
       83000.000        79.393600       0.73897800
       83300.000        79.353400       0.73433400
       83500.000        79.325200       0.73123700
       83800.000        79.280500       0.72659300
       84000.000        79.248900       0.72349700
       84300.000        79.198600       0.71900300
       84500.000        79.162800       0.71600700
       84800.000        79.105300       0.71151400
       85000.000        79.064000       0.70851800
       85150.000        79.031300       0.70634300
       85300.000        78.996900       0.70416800
       85400.000        78.973000       0.70271800
       85500.000        78.948300       0.70126900
       85650.000        78.909300       0.69909400
       85800.000        78.868000       0.69691900
       85900.000        78.839100       0.69546900
       86000.000        78.808800       0.69401900
       86150.000        78.760800       0.69192000
       86300.000        78.709300       0.68982000
       86450.000        78.653600       0.68772100
       86520.000        78.626000       0.68674100
       86600.000        78.593100       0.68562200
       86670.000        78.563000       0.68464200
       86750.000        78.526900       0.68352200
       86830.000        78.488900       0.68240200
       86900.000        78.453900       0.68142300
       86970.000        78.417000       0.68044300
       87050.000        78.372400       0.67932300
       87130.000        78.324900       0.67820400
       87200.000        78.280600       0.67722400
       87280.000        78.226300       0.67614500
       87350.000        78.175300       0.67520100
       87420.000        78.120400       0.67425800
       87460.000        78.087000       0.67371800
       87500.000        78.052100       0.67317900
       87540.000        78.015400       0.67264000
       87580.000        77.976800       0.67210000
       87620.000        77.936000       0.67156100
       87650.000        77.903900       0.67115600
       87690.000        77.858800       0.67061700
       87730.000        77.810700       0.67007800
       87760.000        77.772500       0.66967300
       87800.000        77.718300       0.66913400
       87840.000        77.659800       0.66859400
       87880.000        77.596400       0.66805500
       87910.000        77.545000       0.66765100
       87950.000        77.470600       0.66711100
       87980.000        77.409500       0.66670700
       88000.000        77.365800       0.66643700
       88020.000        77.319500       0.66616700
       88040.000        77.270200       0.66589800
       88060.000        77.217400       0.66562800
       88080.000        77.160700       0.66535800
       88100.000        77.099400       0.66508900
       88115.000        77.049900       0.66488600
       88130.000        76.997100       0.66468400
       88145.000        76.940300       0.66448200
       88160.000        76.879000       0.66428000
       88175.000        76.812400       0.66407700
       88190.000        76.739400       0.66387500
       88205.000        76.658800       0.66367300
       88213.000        76.612100       0.66356500
       88220.000        76.568700       0.66347100
       88228.000        76.516100       0.66336300
       88235.000        76.466900       0.66326800
       88243.000        76.406400       0.66316100
       88250.000        76.349500       0.66306600
       88258.000        76.278700       0.66295800
       88265.000        76.211100       0.66286400
       88273.000        76.125800       0.66275600
       88280.000        76.042700       0.66266200
       88288.000        75.935400       0.66255400
       88292.000        75.875600       0.66250000
       88295.000        75.827600       0.66245900
       88299.000        75.758700       0.66240500
       88303.000        75.683100       0.66235100
       88306.000        75.621200       0.66231100
       88310.000        75.530400       0.66225700
       88313.000        75.454700       0.66221700
       88315.000        75.399900       0.66219000
       88318.000        75.309800       0.66214900
       88320.000        75.243400       0.66212200
       88323.000        75.132500       0.66208200
       88325.000        75.049100       0.66205500
       88328.000        74.905200       0.66201400
       88330.000        74.793000       0.66198700
       88332.000        74.663200       0.66196000
       88334.000        74.509400       0.66193400
       88336.000        74.322100       0.66190700
       88338.000        74.084100       0.66188000
       88339.000        73.937300       0.66186600
       88340.000        73.762600       0.66185300
       88341.000        73.551000       0.66183900
       88342.000        73.283500       0.66182600
       88343.000        72.931300       0.66181200
       88344.000        72.431100       0.66179900
       88345.100        71.535900       0.66178400
       88346.200        69.810300       0.66176900
       88346.200        69.805900       0.66176900
       88346.300        70.046200        1.4823900
       88346.400        70.280500        2.3030200
       88346.600        70.752500        3.9442700
       88347.100        71.925900        8.0474000
       88347.900        73.778000        14.612400
       88348.800        75.822200        7.6370600
       88349.700        77.773400       0.66172300
       88350.200        76.556200       0.66171600
       88350.700        75.583900       0.66170900
       88352.500        75.012400        4.3126800
       88354.300        74.926400        1.3395300
       88356.000        74.277000        2.7845500
       88357.000        74.379100        3.1564200
       88358.000        74.762200        3.1557200
       88359.000        74.903100        3.1550200
       88360.000        74.984800        3.1543200
       88361.000        75.050300        3.1536200
       88362.000        75.107100        3.1529200
       88363.000        75.155600        3.1522200
       88364.000        75.201100        3.1515200
       88365.000        75.241700        3.1508300
       88366.000        75.280700        3.1501300
       88367.000        75.316300        3.1494300
       88368.000        75.351000        3.1487400
       88369.000        75.383000        3.1480500
       88370.000        75.414000        3.1473500
       88371.500        75.458200        3.1463000
       88373.000        75.499900        3.1452600
       88374.000        75.526300        3.1445600
       88375.000        75.552100        3.1438600
       88378.000        75.623500        3.1417700
       88380.000        75.667700        3.1403800
       88383.000        75.729400        3.1383000
       88385.000        75.767900        3.1369100
       88388.000        75.822200        3.1348300
       88390.000        75.856300        3.1334400
       88392.000        75.889000        3.1322500
       88394.000        75.920300        3.1310600
       88398.000        75.979300        3.1286800
       88402.000        76.034200        3.1263000
       88405.000        76.073300        3.1245100
       88409.000        76.121800        3.1207000
       88413.000        76.165800        3.1169000
       88417.000        76.206600        3.1147100
       88420.000        76.235100        3.1130600
       88424.000        76.271500        3.1127200
       88428.000        76.306200        3.1123900
       88435.000        76.363900        3.1143200
       88443.000        76.426600        3.1179700
       88450.000        76.479400        3.1211600
       88458.000        76.537100        3.1232200
       88465.000        76.585200        3.1250200
       88472.000        76.631000        3.1246600
       88480.000        76.679800        3.1242400
       88487.000        76.720200        3.1228100
       88495.000        76.763000        3.1211800
       88502.000        76.798200        3.1201100
       88510.000        76.836000        3.1188800
       88525.000        76.902600        3.1192800
       88540.000        76.965300        3.1196800
       88555.000        77.023700        3.1194000
       88570.000        77.078100        3.1191300
       88585.000        77.129200        3.1188500
       88600.000        77.177500        3.1185800
       88615.000        77.223200        3.1178400
       88630.000        77.266300        3.1170900
       88650.000        77.320300        3.1161000
       88670.000        77.371000        3.1151100
       88700.000        77.441700        3.1136200
       88720.000        77.485600        3.1124500
       88750.000        77.547200        3.1107000
       88780.000        77.604400        3.1089500
       88800.000        77.640300        3.1077800
       88830.000        77.691300        3.1064600
       88850.000        77.723800        3.1055700
       88880.000        77.770300        3.1042500
       88900.000        77.800000        3.1033600
       88950.000        77.870000        3.1011600
       89000.000        77.935100        3.0989500
       89050.000        77.995500        3.0954900
       89100.000        78.051400        3.0920400
       89150.000        78.103400        3.0885800
       89200.000        78.151700        3.0851200
       89250.000        78.197300        3.0828100
       89300.000        78.240800        3.0805000
       89350.000        78.282300        3.0781900
       89400.000        78.322000        3.0758700
       89450.000        78.359900        3.0735600
       89500.000        78.396300        3.0712500
       89600.000        78.465000        3.0666300
       89700.000        78.528600        3.0615300
       89800.000        78.587800        3.0564400
       89900.000        78.643100        3.0513400
       89950.000        78.669500        3.0487900
       89970.000        78.679900        3.0477700
       90000.000        78.695200        3.0462400
       90100.000        78.744300        3.0411600
       90200.000        78.790700        3.0360700
       90300.000        78.834700        3.0309900
       90400.000        78.876500        3.0259000
       90500.000        78.916400        3.0208200
       90600.000        78.954500        3.0157300
       90700.000        78.990900        3.0106500
       90800.000        79.025900        3.0055600
       90900.000        79.059600        3.0004800
       91000.000        79.091900        2.9953900
       91100.000        79.123100        2.9903100
       91200.000        79.153200        2.9852200
       91350.000        79.196500        2.9776000
       91500.000        79.237700        2.9699700
       91700.000        79.289700        2.9598000
       91900.000        79.338800        2.9496300
       92100.000        79.385200        2.9394600
       92300.000        79.429200        2.9292900
       92500.000        79.471100        2.9191200
       92700.000        79.511100        2.9089500
       92850.000        79.540000        2.9013300
       93000.000        79.568200        2.8937000
       93150.000        79.595400        2.8859600
       93300.000        79.621500        2.8782200
       93500.000        79.654900        2.8678900
       93800.000        79.702300        2.8524100
       94000.000        79.731900        2.8420900
       94300.000        79.774400        2.8281000
       94500.000        79.801700        2.8187700
       94800.000        79.841000        2.8047800
       95000.000        79.866000        2.7954500
       95400.000        79.913900        2.7781600
       95800.000        79.959400        2.7608700
       96200.000        80.002600        2.7435900
       96500.000        80.033500        2.7306200
       96900.000        80.073000        2.7141700
       97300.000        80.110900        2.6977200
       97700.000        80.147100        2.6812800
       98000.000        80.173700        2.6689400
       98300.000        80.199400        2.6562700
       98500.000        80.215900        2.6478300
       98800.000        80.240000        2.6351600
       99000.000        80.255700        2.6267100
       99300.000        80.278500        2.6140700
       99500.000        80.293200        2.6056500
       99800.000        80.314700        2.5930100
       99900.000        80.321700        2.5888000
       100000.00        80.328600        2.5845900
