;  Atomic scattering factors for Po.
;   
;  Concatenation of data from CXRO <http://www-cxro.lbl.gov>
;  and LLNL <http://www-phys.llnl.gov/V_Div/scattering/asf.html>
;  
;  E (eV) f1 f2
;---------------
       10.000000       -9999.0000        4.9276300
       10.161700       -9999.0000        4.9578400
       10.326100       -9999.0000        4.9882300
       10.493100       -9999.0000        5.0188100
       10.662800       -9999.0000        5.0495700
       10.835300       -9999.0000        5.1063400
       11.010600       -9999.0000        5.1736800
       11.188600       -9999.0000        5.2419100
       11.369600       -9999.0000        5.3110400
       11.553500       -9999.0000        5.3810800
       11.740400       -9999.0000        5.4188900
       11.930300       -9999.0000        5.4488300
       12.123200       -9999.0000        5.4789400
       12.319300       -9999.0000        5.5092200
       12.518600       -9999.0000        5.5396600
       12.721000       -9999.0000        5.5224500
       12.926800       -9999.0000        5.4890200
       13.135900       -9999.0000        5.4558000
       13.348300       -9999.0000        5.4227800
       13.564200       -9999.0000        5.3898400
       13.783600       -9999.0000        5.3511200
       14.006600       -9999.0000        5.3126700
       14.233100       -9999.0000        5.2744900
       14.463300       -9999.0000        5.2366000
       14.697300       -9999.0000        5.1989700
       14.935000       -9999.0000        5.1721300
       15.176500       -9999.0000        5.1460200
       15.422000       -9999.0000        5.1200400
       15.671400       -9999.0000        5.0941900
       15.924900       -9999.0000        5.0684800
       16.182500       -9999.0000        5.0428900
       16.444200       -9999.0000        5.0179300
       16.710200       -9999.0000        4.9964100
       16.980500       -9999.0000        4.9749800
       17.255100       -9999.0000        4.9536300
       17.534200       -9999.0000        4.9323900
       17.817800       -9999.0000        4.8444600
       18.106000       -9999.0000        4.7191900
       18.398900       -9999.0000        4.5971700
       18.696400       -9999.0000        4.4782900
       18.998800       -9999.0000        4.3609100
       19.306100       -9999.0000        4.2433900
       19.618400       -9999.0000        4.1290300
       19.935700       -9999.0000        4.0177600
       20.258200       -9999.0000        3.9094800
       20.585800       -9999.0000        3.7813200
       20.918800       -9999.0000        3.6531800
       21.257100       -9999.0000        3.5293800
       21.600900       -9999.0000        3.3974900
       21.950300       -9999.0000        3.1835900
       22.305300       -9999.0000        2.9831500
       22.666100       -9999.0000        2.7953400
       23.032700       -9999.0000        2.6380000
       23.405300       -9999.0000        2.5010300
       23.783800       -9999.0000        2.3711700
       24.168500       -9999.0000        2.2436100
       24.559400       -9999.0000        2.1174900
       24.956600       -9999.0000        1.9984600
       25.360300       -9999.0000        1.8990200
       25.770500       -9999.0000        1.8113800
       26.187300       -9999.0000        1.7277900
       26.610900       -9999.0000        1.7141700
       27.041300       -9999.0000        1.7102700
       27.478600       -9999.0000        1.6946800
       27.923100       -9999.0000        1.6624800
       28.374700       -9999.0000        1.6565900
       28.833700       -9999.0000        1.6966800
       29.300000      -0.32747400        1.7397600
       29.773900      -0.80575100        1.8062100
       30.255500       -1.4338700        1.8752000
       30.744900       -2.3884800        2.3137800
       31.242100       -3.0580000        3.3680400
       31.747500       -2.9523200        4.8509800
       32.260900       -2.4255700        5.1831300
       32.782700       -2.1565700        5.5049200
       33.313000       -1.9916100        5.8119300
       33.851800       -1.7740100        6.1353400
       34.399300       -1.5606800        6.2475600
       34.955700       -1.4288800        6.3618200
       35.521100       -1.3101900        6.4499300
       36.095600       -1.2607000        6.4830600
       36.679400       -1.2706100        6.5163600
       37.272700       -1.3271200        6.5496800
       37.875500       -1.4339200        6.5831500
       38.488200       -1.6175200        6.6168000
       39.110700       -1.8535900        6.7670800
       39.743200       -2.0669900        6.9391300
       40.386100       -2.2973800        7.1155500
       41.039300       -2.5956600        7.3448500
       41.703100       -2.8618500        7.6453600
       42.377600       -3.1352500        7.9581600
       43.063000       -3.4676300        8.2844900
       43.759500       -3.7917900        8.8005600
       44.467300       -4.0443800        9.3487800
       45.186500       -4.2565900        9.9311400
       45.917400       -4.4370400        10.557300
       46.660000       -4.5695600        11.229400
       47.414700       -4.6494900        11.944200
       48.181600       -4.6552200        12.704500
       48.960900       -4.5296500        13.513200
       49.752800       -4.3440200        14.149400
       50.557600       -4.1965300        14.800000
       51.375300       -4.0375000        15.480500
       52.206200       -3.8448900        16.192300
       53.050600       -3.5916100        16.936800
       53.908700       -3.2210900        17.715600
       54.780600       -2.8113800        18.330900
       55.666700       -2.4230300        18.967200
       56.567000       -2.0062400        19.625500
       57.482000       -1.5223300        20.306800
       58.411700      -0.87905200        20.903200
       59.356400      -0.32559300        21.370000
       60.316500       0.19699000        21.847300
       61.292100       0.71828400        22.335200
       62.283400        1.2523400        22.834000
       63.290800        1.8092100        23.343900
       64.314500        2.3989900        23.865300
       65.354700        3.0338300        24.398200
       66.411800        3.7325300        24.943100
       67.485900        4.5359900        25.500200
       68.577500        5.5823700        25.917100
       69.686700        6.4782500        26.070400
       70.813800        7.2879400        26.224500
       71.959100        8.0611400        26.379500
       73.123000        8.8205900        26.535500
       74.305700        9.5783000        26.692400
       75.507600        10.344100        26.850100
       76.728900        11.127900        27.008900
       77.969900        11.943800        27.168600
       79.231000        12.823200        27.329200
       80.512500        13.800900        27.382900
       81.814700        14.708300        27.344400
       83.138000        15.599700        27.305900
       84.482700        16.508700        27.267500
       85.849100        17.465700        27.229100
       87.237700        18.527500        27.190800
       88.648700        19.896700        27.061900
       90.082500        21.088400        26.273300
       91.539500        21.994400        25.507600
       93.020100        22.683800        24.782600
       94.524600        23.337800        24.193100
       96.053500        24.012100        23.617600
       97.607100        24.759500        23.055700
       99.185800        25.642900        22.192400
       100.79000        26.181400        21.142800
       102.42000        26.417300        20.143000
       104.07700        26.532500        19.408300
       105.76000        26.712700        18.763800
       107.47100        26.905900        18.140800
       109.20900        27.100200        17.538400
       110.97500        27.305700        16.956100
       112.77000        27.582400        16.393000
       114.59400        27.893300        15.617800
       116.44800        27.988100        14.763600
       118.33100        27.950900        13.956200
       120.24500        27.809200        13.192800
       122.19000        27.525700        12.471300
       124.16600        27.107900        12.032400
       126.17500        26.846700        11.743600
       128.21500        26.690000        11.461800
       130.28900        26.571100        11.186700
       132.39700        26.480700        10.918200
       134.53800        26.415100        10.656200
       136.71400        26.375300        10.400500
       138.92500        26.371100        10.150900
       141.17200        26.458700        9.9072600
       143.45600        26.605300        9.4665300
       145.77600        26.587300        8.9361100
       148.13400        26.479800        8.4354000
       150.53000        26.318000        7.9627300
       152.96400        26.115000        7.5165600
       155.43900        25.876100        7.0953900
       157.95300        25.593800        6.7040300
       160.50700        25.304600        6.3706300
       163.10300        25.011000        6.0538000
       165.74200        24.707300        5.7527400
       168.42200        24.388700        5.4666300
       171.14600        24.051700        5.1947700
       173.91500        23.689200        4.9364200
       176.72700        23.256000        4.6909300
       179.58600        22.827500        4.5899600
       182.49100        22.457700        4.5051400
       185.44200        22.111800        4.4219000
       188.44200        21.785500        4.3366500
       191.48900        21.450800        4.2328200
       194.58700        21.098700        4.1314800
       197.73400        20.726600        4.0325600
       200.93200        20.328800        3.9491000
       204.18200        19.912100        3.8758600
       207.48500        19.435700        3.8325800
       210.84000        18.967700        3.8412900
       214.25100        18.478900        3.8810000
       217.71600        18.005200        3.9592900
       221.23700        17.525000        4.0391700
       224.81600        16.998600        4.1582800
       228.45200        16.489400        4.3346100
       232.14700        15.954600        4.5184200
       235.90200        15.420800        4.8114500
       239.71700        14.916800        5.1329900
       243.59500        14.437100        5.4821800
       247.53500        13.968700        5.8551100
       251.53800        13.497800        6.2534300
       255.60700        13.031600        6.7040600
       259.74100        12.586600        7.1968100
       263.94200        12.160400        7.7257700
       268.21100        11.750300        8.2936100
       272.54900        11.354800        8.9087400
       276.95700        10.994300        9.5827600
       281.43700        10.679700        10.307800
       285.98900        10.455900        11.087700
       290.61500        10.285500        11.818800
       295.31500        10.119900        12.573600
       300.09200        9.9933000        13.376600
       304.94500        9.9848100        14.230900
       309.87800        10.037800        14.972600
       314.89000        10.061500        15.705100
       319.98300        10.099700        16.473500
       325.15800        10.197200        17.279400
       330.41800        10.408600        18.049000
       335.76200        10.578400        18.725300
       341.19200        10.730300        19.427000
       346.71100        10.893200        20.155000
       352.31900        11.083700        20.910300
       358.01700        11.358500        21.693900
       363.80800        11.658600        22.385600
       369.69200        11.933100        23.079700
       375.67200        12.211800        23.795300
       381.74800        12.508100        24.533100
       387.92200        12.831900        25.293700
       394.19700        13.191900        26.078000
       400.57300        13.599300        26.886500
       407.05200        14.128900        27.712100
       413.63500        14.672300        28.417500
       420.32600        15.198900        29.140800
       427.12400        15.750200        29.882500
       434.03200        16.341300        30.643100
       441.05200        16.989200        31.423100
       448.18600        17.720100        32.222900
       455.43500        18.639400        32.990500
       462.80200        19.526300        33.557400
       470.28700        20.392500        34.134000
       477.89400        21.288500        34.720500
       485.62300        22.249400        35.317100
       493.47800        23.462300        35.823300
       501.45900        24.587900        36.069800
       509.57000        25.604700        36.318100
       517.81200        26.626300        36.568100
       526.18700        27.802900        36.819800
       534.69800        28.943900        36.770100
       543.34600        29.948700        36.696900
       552.13400        30.900300        36.623800
       561.06500        31.834400        36.550900
       570.13900        32.796200        36.478100
       579.36100        33.852100        36.257000
       588.73200        34.768100        35.864900
       598.25400        35.530300        35.476900
       607.93000        36.220700        35.093200
       617.76300        36.861700        34.700200
       627.75500        37.420000        34.284400
       637.90800        37.872900        33.873700
       648.22600        38.198100        33.522100
       658.71100        38.526700        33.294000
       669.36500        38.848000        33.078600
       680.19100        39.129200        32.896800
       691.19300        39.363600        32.747800
       702.37200        39.488100        32.661400
       713.73300        39.577000        32.829400
       725.27700        39.873000        33.176600
       737.00800        40.327000        33.527400
       748.92800        40.908400        33.881900
       761.04200        41.648600        34.231200
       773.35100        42.610700        34.487500
       785.85900        43.700100        34.432800
       798.57000        44.583400        34.120800
       811.48600        45.329900        33.811900
       824.61100        46.008500        33.505700
       837.94900        46.646600        33.202200
       851.50200        47.255100        32.885200
       865.27400        47.831700        32.550400
       879.26900        48.356900        32.200600
       893.49100        48.835800        31.854700
       907.94300        49.266300        31.512300
       922.62800        49.600900        31.173500
       937.55100        49.927000        31.008600
       952.71500        50.295200        30.890600
       968.12400        50.745500        30.813400
       983.78300        51.269300        30.736300
       999.69500        51.878500        30.628900
       1015.8600        52.622400        30.489400
       1032.2900        53.303800        30.038800
       1048.9900        53.876100        29.584600
       1065.9600        54.368200        29.129000
       1083.2000        54.813000        28.679700
       1100.7200        55.221800        28.237100
       1118.5200        55.601000        27.801000
       1136.6100        55.954700        27.371000
       1155.0000        56.286000        26.947500
       1173.6800        56.597400        26.530300
       1192.6600        56.890400        26.119100
       1211.9500        57.167000        25.713800
       1231.5500        57.428100        25.314300
       1251.4700        57.674200        24.920200
       1271.7200        57.906500        24.531900
       1292.2900        58.125800        24.149500
       1313.1900        58.333000        23.772600
       1334.4300        58.528900        23.401100
       1356.0100        58.713700        23.034700
       1377.9400        58.887900        22.673600
       1400.2300        59.052400        22.317800
       1422.8800        59.208400        21.967200
       1445.8900        59.357300        21.621300
       1469.2800        59.502000        21.277000
       1493.0400        59.643400        20.932500
       1517.1900        59.769200        20.572100
       1541.7300        59.875100        20.214600
       1566.6700        59.963500        19.862600
       1592.0100        60.037700        19.515900
       1617.7600        60.098400        19.175100
       1643.9200        60.147100        18.840200
       1670.5100        60.184000        18.510200
       1697.5300        60.209300        18.185500
       1724.9900        60.230300        17.866000
       1752.8900        60.237900        17.537600
       1781.2400        60.225700        17.210300
       1810.0500        60.194400        16.885600
       1839.3200        60.143500        16.566000
       1869.0700        60.074400        16.252100
       1899.3000        59.986900        15.944000
       1930.0200        59.880900        15.641700
       1961.2400        59.755600        15.344600
       1992.9600        59.606600        15.052200
       2025.2000        59.446700        14.774100
       2057.9500        59.264800        14.483200
       2091.2400        59.048600        14.194600
       2125.0600        58.800200        13.910200
       2159.4300        58.515600        13.628400
       2194.3600        58.190900        13.351100
       2229.8500        57.820100        13.076500
       2265.9200        57.395600        12.805600
       2302.5700        56.907800        12.538200
       2339.8100        56.344000        12.274300
       2377.6600        55.686600        12.014000
       2416.1100        54.910800        11.757000
       2455.1900        53.979500        11.503400
       2494.9000        52.835100        11.253500
       2535.2600        51.378200        11.006900
       2576.2600        49.413500        10.763800
       2617.9300        46.458900        10.524200
       2660.2700        40.424500        10.288200
       2682.9000        11.504500        10.165800
       2683.1000        11.508500        26.829100
       2703.3000        39.208600        26.527100
       2747.0300        43.590000        25.892500
       2791.4600        39.460700        25.273700
       2797.9000        24.754000        25.186000
       2798.1000        24.767700        36.536100
       2836.6100        48.203600        35.786800
       2882.4900        52.681100        34.926700
       2929.1100        55.530600        34.087000
       2976.4800        57.634400        33.269000
       3024.6300        59.271500        32.471000
       3073.5500        60.565100        31.694200
       3123.2600        61.568800        30.936700
       3173.7800        62.281700        30.198400
       3225.1100        62.605300        29.477500
       3277.2700        61.978600        28.775400
       3301.8000        54.617900        28.454800
       3302.0000        54.630500        33.050900
       3330.2800        63.058800        32.633600
       3384.1500        65.393600        31.863000
       3438.8800        66.818500        31.111800
       3494.5000        67.909000        30.378500
       3551.0200        68.798300        29.664800
       3608.4600        69.538400        28.968400
       3666.8200        70.148200        28.289000
       3726.1300        70.621900        27.626300
       3786.4000        70.899500        26.981000
       3847.6400        70.264800        26.351600
       3854.0000        68.232600        26.287600
       3854.2000        68.239700        27.883400
       3909.8700        71.850100        27.293100
       3973.1100        72.640000        26.647400
       4037.3800        73.170700        26.016800
       4102.6800        74.136600        25.401100
       4149.3000        72.250900        24.976100
       4149.5000        72.258600        26.007500
       4169.0300        73.683100        25.838500
       4236.4600        74.599200        25.269700
       4304.9800        75.204500        24.709400
       4374.6200        75.707900        24.157600
       4445.3700        76.149200        23.617200
       4517.2700        76.545900        23.086500
       4590.3300        76.906800        22.565400
       4664.5800        77.236600        22.052900
       4740.0300        77.538100        21.549700
       4816.6900        77.815100        21.056600
       4894.6000        78.070400        20.573000
       4973.7700        78.305600        20.098500
       5054.2100        78.522100        19.633500
       5135.9600        78.721500        19.177600
       5219.0300        78.905100        18.730700
       5303.4400        79.073700        18.292700
       5389.2200        79.228300        17.863700
       5476.3900        79.370000        17.443500
       5564.9700        79.499400        17.032000
       5654.9800        79.617200        16.629000
       5746.4400        79.724200        16.234600
       5839.3900        79.820800        15.848600
       5933.8300        79.907900        15.470900
       6029.8100        79.985900        15.101300
       6127.3300        80.055100        14.739600
       6226.4400        80.116000        14.385800
       6327.1500        80.169300        14.040100
       6429.4800        80.215300        13.701700
       6533.4800        80.254000        13.370900
       6639.1500        80.286100        13.047600
       6746.5400        80.311700        12.731600
       6855.6500        80.331400        12.422900
       6966.5400        80.345400        12.121100
       7079.2200        80.353700        11.825900
       7193.7200        80.356700        11.538000
       7310.0700        80.354800        11.256400
       7428.3100        80.347800        10.981400
       7548.4500        80.336000        10.713000
       7670.5400        80.320100        10.450900
       7794.6100        80.299700        10.194800
       7920.6800        80.275000        9.9447100
       8048.7900        80.246200        9.7005100
       8178.9800        80.213300        9.4621800
       8311.2600        80.176600        9.2294600
       8445.6900        80.136000        9.0022600
       8582.2900        80.091600        8.7807100
       8721.1100        80.043500        8.5641500
       8862.1600        79.991600        8.3531200
       9005.5000        79.936100        8.1468600
       9151.1600        79.876700        7.9457700
       9299.1700        79.813900        7.7495900
       9449.5800        79.747500        7.5580000
       9602.4200        79.677500        7.3710300
       9757.7300        79.604000        7.1889400
       9915.5500        79.533900        7.0110300
       10075.900        79.459200        6.8214100
       10238.900        79.365000        6.6373800
       10404.500        79.263100        6.4588100
       10572.800        79.152300        6.2855800
       10743.800        79.032700        6.1175900
       10917.600        78.903700        5.9547200
       11094.200        78.764600        5.7968500
       11273.600        78.614300        5.6438800
       11455.900        78.451400        5.4956900
       11641.200        78.274000        5.3521700
       11829.500        78.079600        5.2132000
       12020.800        77.864600        5.0786900
       12215.300        77.624300        4.9485100
       12412.800        77.351600        4.8225800
       12613.600        77.036200        4.7007700
       12817.600        76.661400        4.5830000
       13025.000        76.198000        4.4691500
       13235.600        75.588400        4.3591200
       13449.700        74.689600        4.2528200
       13667.200        72.926600        4.1501400
       13813.700        58.490100        4.0833100
       13813.900        58.490600        10.337900
       13888.300        71.717100        10.242800
       14112.900        74.522600        9.9637700
       14341.200        75.621300        9.6924000
       14573.100        76.269400        9.4284100
       14808.900        76.685600        9.1716300
       15048.400        76.944000        8.9218300
       15291.800        77.069900        8.6788500
       15539.100        77.056700        8.4425000
       15790.400        76.850100        8.2125700
       16045.800        76.224300        7.9889200
       16244.200        68.989900        7.8217900
       16244.400        68.990700        10.927400
       16305.400        75.185000        10.868800
       16569.100        76.843200        10.621800
       16837.100        77.109400        10.380300
       16939.200        74.409700        10.290800
       16939.400        74.410200        11.621000
       17109.400        77.903600        11.461600
       17386.100        78.762100        11.210100
       17667.400        79.342900        10.961700
       17953.100        79.803700        10.716400
       18243.500        80.190600        10.474500
       18538.600        80.524900        10.236000
       18838.400        80.819100        10.000900
       19143.100        81.081100        9.7694800
       19452.700        81.316100        9.5416600
       19767.400        81.528400        9.3175200
       20087.100        81.720900        9.0971300
       20412.000        81.896100        8.8805000
       20742.100        82.055900        8.6676700
       21077.600        82.201900        8.4586500
       21418.500        82.335400        8.2534600
       21765.000        82.457600        8.0521100
       22117.000        82.569400        7.8546000
       22474.700        82.671800        7.6609200
       22838.200        82.765500        7.4710500
       23207.600        82.851100        7.2849900
       23583.000        82.929300        7.1027100
       23964.400        83.000600        6.9241900
       24352.000        83.065400        6.7493900
       24745.900        83.124300        6.5783000
       25146.200        83.177600        6.4108700
       25552.900        83.225800        6.2470800
       25966.200        83.269100        6.0868700
       26386.100        83.307800        5.9302100
       26812.900        83.342300        5.7770500
       27246.600        83.372800        5.6273500
       27687.300        83.399700        5.4810700
       28135.100        83.423000        5.3381400
       28590.200        83.443000        5.1985300
       29052.600        83.460000        5.0621800
       29522.500        83.474200        4.9290400
       30000.000        83.485600        4.7990600
       30200.000        83.299800        4.6358400
       30400.000        83.302600        4.5852100
       30600.000        83.305000        4.5363200
       30800.000        83.307100        4.4874300
       31000.000        83.308800        4.4401900
       31200.000        83.310200        4.3929500
       31500.000        83.311700        4.3241800
       31900.000        83.312700        4.2351300
       32300.000        83.312700        4.1489900
       32600.000        83.312200        4.0862200
       33000.000        83.311200        4.0048700
       33400.000        83.309300        3.9250900
       33800.000        83.306200        3.8478300
       34100.000        83.303300        3.7914600
       34500.000        83.298800        3.7183400
       34900.000        83.293700        3.6474400
       35300.000        83.288100        3.5785400
       35700.000        83.281800        3.5116300
       36030.000        83.276200        3.4579300
       36500.000        83.267800        3.3836800
       37000.000        83.258200        3.3074500
       37500.000        83.248100        3.2339200
       38000.000        83.237600        3.1629700
       38500.000        83.226700        3.0944100
       39000.000        83.215400        3.0281900
       39500.000        83.203800        2.9642100
       40000.000        83.192200        2.9023600
       40800.000        83.172900        2.8067400
       41500.000        83.155300        2.7271200
       42300.000        83.134700        2.6404500
       43000.000        83.116300        2.5681500
       43800.000        83.095100        2.4889800
       44500.000        83.076100        2.4228500
       45300.000        83.054300        2.3505500
       46000.000        83.035100        2.2899700
       46500.000        83.021200        2.2482000
       47000.000        83.007300        2.2076300
       47500.000        82.993300        2.1682000
       48000.000        82.979400        2.1298800
       49000.000        82.951500        2.0564000
       49500.000        82.937600        2.0211600
       50000.000        82.923700        1.9868600
       50800.000        82.901300        1.9334500
       51500.000        82.881700        1.8885500
       52300.000        82.859300        1.8392300
       53000.000        82.839700        1.7977300
       53600.000        82.822900        1.7633200
       54100.000        82.808800        1.7354300
       55211.300        82.777600        1.6758400
       55800.000        82.761000        1.6454400
       56400.000        82.744100        1.6153500
       57530.000        82.712100        1.5609700
       58500.000        82.684500        1.5165700
       59540.000        82.655000        1.4711400
       59800.000        82.647500        1.4601200
       60000.000        82.641800        1.4517200
       60800.000        82.618800        1.4187800
       61500.000        82.598700        1.3909000
       62300.000        82.575400        1.3600900
       63000.000        82.555000        1.3340000
       64000.000        82.525400        1.2980800
       65000.000        82.495700        1.2636600
       65900.000        82.468400        1.2338000
       66830.000        82.440100        1.2040900
       67400.000        82.422400        1.1864400
       68000.000        82.403600        1.1682900
       69000.000        82.371700        1.1390000
       70000.000        82.339200        1.1108500
       71000.000        82.305800        1.0836600
       72000.000        82.271400        1.0575100
       72800.000        82.243200        1.0375600
       73500.000        82.217800        1.0201000
       74200.000        82.191800        1.0035800
       74960.000        82.162800       0.98564700
       75500.000        82.141600       0.97336700
       76000.000        82.121500       0.96220800
       76600.000        82.096800       0.94920100
       77110.000        82.075200       0.93814500
       77900.000        82.040700       0.92179100
       78600.000        82.008800       0.90730100
       79300.000        81.975600       0.89335800
       79700.000        81.956000       0.88558100
       80000.000        81.940900       0.87974900
       80800.000        81.899200       0.86473600
       81500.000        81.860600       0.85159900
       81900.000        81.837500       0.84446300
       82300.000        81.813700       0.83732800
       82700.000        81.789100       0.83019200
       83000.000        81.770000       0.82484000
       83500.000        81.737000       0.81628300
       84000.000        81.702300       0.80772700
       84500.000        81.665700       0.79944600
       84800.000        81.642800       0.79447700
       85000.000        81.627100       0.79116500
       85400.000        81.594400       0.78480200
       85800.000        81.560100       0.77843900
       86200.000        81.523900       0.77207600
       86500.000        81.495400       0.76730400
       86900.000        81.455300       0.76123700
       87300.000        81.412700       0.75517100
       87700.000        81.367000       0.74910400
       88000.000        81.330600       0.74455400
       88300.000        81.292000       0.74017900
       88500.000        81.265000       0.73726300
       88800.000        81.222200       0.73288800
       89000.000        81.192100       0.72997100
       89300.000        81.144200       0.72572900
       89500.000        81.110200       0.72290100
       89800.000        81.055700       0.71865900
       90000.000        81.016700       0.71583100
       90150.000        80.985800       0.71375900
       90300.000        80.953500       0.71168800
       90400.000        80.931100       0.71030700
       90500.000        80.907900       0.70892500
       90650.000        80.871500       0.70685400
       90800.000        80.833000       0.70478200
       90900.000        80.806100       0.70340100
       91000.000        80.778100       0.70202000
       91150.000        80.733800       0.70001000
       91300.000        80.686300       0.69800000
       91400.000        80.652800       0.69666000
       91500.000        80.617600       0.69532100
       91650.000        80.561100       0.69331100
       91800.000        80.499600       0.69130100
       91900.000        80.455300       0.68996100
       92000.000        80.408100       0.68862100
       92100.000        80.357500       0.68733000
       92200.000        80.302900       0.68603900
       92300.000        80.243800       0.68474900
       92400.000        80.179300       0.68345800
       92470.000        80.130400       0.68255400
       92550.000        80.070200       0.68152100
       92630.000        80.004400       0.68048900
       92670.000        79.969100       0.67997200
       92700.000        79.941400       0.67958500
       92750.000        79.892900       0.67894000
       92800.000        79.840900       0.67829400
       92850.000        79.784900       0.67764900
       92900.000        79.724200       0.67700400
       92950.000        79.658100       0.67635800
       92970.000        79.629800       0.67610000
       93000.000        79.585400       0.67571300
       93020.000        79.554200       0.67545500
       93050.000        79.504800       0.67506700
       93070.000        79.469900       0.67480900
       93100.000        79.414300       0.67442200
       93130.000        79.354200       0.67403500
       93150.000        79.311300       0.67377600
       93170.000        79.265700       0.67351800
       93200.000        79.191800       0.67313100
       93220.000        79.138000       0.67287300
       93235.000        79.095000       0.67267900
       93250.000        79.049500       0.67248600
       93265.000        79.000900       0.67229200
       93280.000        78.949000       0.67209800
       93290.000        78.912300       0.67196900
       93300.000        78.873800       0.67184000
       93315.000        78.812000       0.67164700
       93330.000        78.744700       0.67145300
       93340.000        78.696200       0.67132400
       93350.000        78.644500       0.67119500
       93365.000        78.559500       0.67100100
       93380.000        78.463800       0.67080800
       93390.000        78.392500       0.67067800
       93400.000        78.314000       0.67054900
       93410.000        78.226300       0.67042000
       93415.000        78.178300       0.67035600
       93420.000        78.127100       0.67029100
       93428.000        78.037200       0.67018800
       93435.000        77.948700       0.67009800
       93439.000        77.893100       0.67004600
       93443.000        77.833000       0.66999400
       93446.000        77.784500       0.66995600
       93450.000        77.714900       0.66990400
       93455.000        77.617300       0.66983900
       93460.000        77.505100       0.66977500
       93463.000        77.428800       0.66973600
       93465.000        77.373200       0.66971000
       93468.000        77.281100       0.66967200
       93470.000        77.212600       0.66964600
       93473.000        77.095900       0.66960700
       93476.000        76.957400       0.66956800
       93479.000        76.786600       0.66953000
       93481.000        76.645500       0.66950400
       93484.000        76.365400       0.66946500
       93485.000        76.242900       0.66945200
       93486.000        76.096900       0.66943900
       93487.500        75.812700       0.66942000
       93489.000        75.383400       0.66940100
       93490.300        74.749100       0.66938400
       93491.600        73.362600       0.66936700
       93491.700        73.378100        1.2034000
       93491.800        73.544200        1.7374300
       93491.900        73.705700        2.2714700
       93492.100        74.032300        3.3395300
       93492.600        74.846100        6.0097000
       93493.500        76.300600        10.816000
       93494.500        77.900600        5.4756400
       93495.400        79.268500       0.66931900
       93497.000        77.446300       0.66929900
       93498.600        76.222200       0.66927900
       93500.500        76.340000        3.7177300
       93502.300        76.423500        1.2849600
       93504.000        75.964300        2.4048500
       93505.000        76.049700        2.9034100
       93506.000        76.332500        2.9189700
       93506.400        76.494700        2.9251300
       93506.800        76.543700        2.9312900
       93507.500        76.616500        2.9422300
       93509.000        76.736900        2.9658000
       93510.000        76.802500        2.9814500
       93511.000        76.862500        2.9974200
       93512.000        76.916400        3.0080600
       93513.000        76.967000        3.0188200
       93513.800        77.002500        3.0273300
       93514.500        77.033100        3.0347800
       93516.000        77.097000        3.0510700
       93517.000        77.136800        3.0597300
       93518.000        77.176000        3.0683900
       93519.000        77.213000        3.0749200
       93520.000        77.248000        3.0814500
       93521.500        77.297800        3.0912500
       93523.000        77.347300        3.1011400
       93525.000        77.411100        3.1101600
       93527.000        77.470600        3.1150700
       93528.500        77.511800        3.1187100
       93530.000        77.552700        3.1223900
       93531.500        77.590400        3.1222800
       93533.000        77.628800        3.1221700
       93535.000        77.675200        3.1220200
       93538.000        77.739400        3.1180500
       93540.000        77.778700        3.1154100
       93543.000        77.833100        3.1100600
       93545.000        77.866400        3.1064900
       93548.000        77.912600        3.1013700
       93550.000        77.940900        3.0979600
       93553.000        77.981000        3.0939600
       93555.000        78.005900        3.0913000
       93560.000        78.063400        3.0872600
       93565.000        78.115700        3.0857700
       93570.000        78.164600        3.0863400
       93578.000        78.238500        3.0899800
       93585.000        78.299800        3.0940400
       93593.000        78.366700        3.0979200
       93600.000        78.422400        3.0998100
       93608.000        78.482200        3.1000900
       93615.000        78.530900        3.0990100
       93623.000        78.582200        3.0968400
       93630.000        78.623500        3.0949400
       93635.000        78.651500        3.0940800
       93640.000        78.678400        3.0932200
       93650.000        78.728700        3.0915100
       93665.000        78.798600        3.0924200
       93680.000        78.864100        3.0933400
       93690.000        78.905400        3.0939200
       93700.000        78.945500        3.0945000
       93715.000        79.002000        3.0931700
       93730.000        79.053900        3.0918400
       93740.000        79.086500        3.0909500
       93750.000        79.117400        3.0900600
       93770.000        79.176100        3.0896400
       93800.000        79.257600        3.0890200
       93820.000        79.307900        3.0880600
       93850.000        79.377700        3.0866300
       93880.000        79.441800        3.0851900
       93900.000        79.481800        3.0842300
       93920.000        79.519800        3.0833900
       93950.000        79.573900        3.0821300
       93970.000        79.608100        3.0812800
       94000.000        79.656800        3.0800200
       94020.000        79.687800        3.0791800
       94050.000        79.732200        3.0779100
       94100.000        79.801500        3.0758100
       94150.000        79.865500        3.0731300
       94200.000        79.924700        3.0704500
       94250.000        79.980000        3.0677800
       94300.000        80.032000        3.0651000
       94350.000        80.080800        3.0618000
       94400.000        80.126600        3.0585000
       94450.000        80.169600        3.0552100
       94500.000        80.209900        3.0519100
       94550.000        80.248300        3.0496400
       94600.000        80.285200        3.0473800
       94650.000        80.320600        3.0451100
       94700.000        80.354400        3.0428400
       94780.000        80.406100        3.0399700
       94850.000        80.449300        3.0374600
       94920.000        80.490800        3.0348300
       95000.000        80.536300        3.0318200
       95080.000        80.579800        3.0275500
       95150.000        80.615700        3.0238100
       95230.000        80.654900        3.0195400
       95300.000        80.688100        3.0158000
       95400.000        80.732900        3.0094200
       95500.000        80.774400        3.0030400
       95650.000        80.832700        2.9953000
       95800.000        80.887400        2.9875700
       95900.000        80.921800        2.9824100
       96000.000        80.954400        2.9772500
       96150.000        81.001200        2.9710400
       96300.000        81.046100        2.9648400
       96400.000        81.074900        2.9607000
       96500.000        81.102800        2.9565600
       96650.000        81.143200        2.9505700
       96800.000        81.182000        2.9445700
       97000.000        81.231900        2.9365800
       97200.000        81.279300        2.9274500
       97400.000        81.324000        2.9183200
       97600.000        81.366700        2.9091900
       97800.000        81.408100        2.9000600
       98000.000        81.446900        2.8899800
       98200.000        81.483600        2.8799100
       98350.000        81.510000        2.8723500
       98500.000        81.535400        2.8647900
       98700.000        81.568000        2.8551100
       98900.000        81.599300        2.8454200
       99100.000        81.629200        2.8357400
       99300.000        81.657900        2.8260500
       99500.000        81.685600        2.8167400
       99700.000        81.712200        2.8074300
       99850.000        81.731500        2.8005100
       99920.000        81.740200        2.7972800
       100000.00        81.749900        2.7935900
