;  Atomic scattering factors for Pr.
;   
;  Concatenation of data from CXRO <http://www-cxro.lbl.gov>
;  and LLNL <http://www-phys.llnl.gov/V_Div/scattering/asf.html>
;  
;  E (eV) f1 f2
;---------------
       10.000000       -9999.0000        1.2632500
       10.161700       -9999.0000        1.2545500
       10.326100       -9999.0000        1.2459100
       10.493100       -9999.0000        1.2373200
       10.662800       -9999.0000        1.2287900
       10.835300       -9999.0000        1.2203300
       11.010600       -9999.0000        1.2119200
       11.188600       -9999.0000        1.2035700
       11.369600       -9999.0000        1.1952800
       11.553500       -9999.0000        1.1870400
       11.740400       -9999.0000        1.1788600
       11.930300       -9999.0000        1.1702200
       12.123200       -9999.0000        1.1601900
       12.319300       -9999.0000        1.1502500
       12.518600       -9999.0000        1.1404000
       12.721000       -9999.0000        1.1306300
       12.926800       -9999.0000        1.1209400
       13.135900       -9999.0000        1.1045300
       13.348300       -9999.0000        1.0870800
       13.564200       -9999.0000        1.0699100
       13.783600       -9999.0000        1.0530100
       14.006600       -9999.0000        1.0154900
       14.233100       -9999.0000       0.99592300
       14.463300       -9999.0000       0.97673600
       14.697300       -9999.0000       0.95792000
       14.935000       -9999.0000       0.93499400
       15.176500       -9999.0000       0.91027600
       15.422000       -9999.0000       0.88621400
       15.671400       -9999.0000       0.86278600
       15.924900       -9999.0000       0.83997800
       16.182500       -9999.0000       0.81777200
       16.444200       -9999.0000       0.79725600
       16.710200       -9999.0000       0.77813900
       16.980500       -9999.0000       0.75948100
       17.255100       -9999.0000       0.74127000
       17.534200       -9999.0000       0.72349500
       17.817800       -9999.0000       0.70614600
       18.106000       -9999.0000       0.68921400
       18.398900       -9999.0000       0.67268800
       18.696400       -9999.0000       0.65998700
       18.998800       -9999.0000       0.64880100
       19.306100       -9999.0000       0.63826000
       19.618400       -9999.0000       0.65040400
       19.935700       -9999.0000       0.67995300
       20.258200       -9999.0000       0.79703200
       20.585800       -9999.0000        1.1312700
       20.918800       -9999.0000        1.4446300
       21.257100       -9999.0000        1.6846900
       21.600900       -9999.0000        1.7933900
       21.950300       -9999.0000        1.7837900
       22.305300       -9999.0000        1.7887300
       22.666100       -9999.0000        1.8531400
       23.032700       -9999.0000        2.0251800
       23.405300       -9999.0000        2.3209800
       23.783800       -9999.0000        2.8168300
       24.168500       -9999.0000        4.2738600
       24.559400       -9999.0000        12.202500
       24.956600       -9999.0000        14.141400
       25.360300       -9999.0000        15.020300
       25.770500       -9999.0000        15.393200
       26.187300       -9999.0000        15.749300
       26.610900       -9999.0000        15.996900
       27.041300       -9999.0000        16.010000
       27.478600       -9999.0000        15.970300
       27.923100       -9999.0000        15.930600
       28.374700       -9999.0000        15.891100
       28.833700       -9999.0000        15.851700
       29.300000        9.5127700        15.355500
       29.773900        10.309300        14.865800
       30.255500        10.970400        14.391700
       30.744900        11.551100        13.932800
       31.242100        12.077900        13.488500
       31.747500        12.550800        13.011400
       32.260900        12.945900        12.542600
       32.782700        13.285300        12.090800
       33.313000        13.579400        11.655200
       33.851800        13.834700        11.235300
       34.399300        14.056100        10.830600
       34.955700        14.247400        10.440400
       35.521100        14.411800        10.064300
       36.095600        14.551900        9.7017300
       36.679400        14.670000        9.3522200
       37.272700        14.767900        9.0153100
       37.875500        14.847100        8.6905300
       38.488200        14.908900        8.3774500
       39.110700        14.954300        8.0756700
       39.743200        14.983200        7.7847300
       40.386100        14.993600        7.5042900
       41.039300        14.988800        7.2482600
       41.703100        14.982400        7.0054100
       42.377600        14.969500        6.7707000
       43.063000        14.948900        6.5438500
       43.759500        14.919900        6.3246100
       44.467300        14.882400        6.1127000
       45.186500        14.835700        5.9079000
       45.917400        14.779200        5.7099600
       46.660000        14.709100        5.5186600
       47.414700        14.615500        5.3421800
       48.181600        14.528500        5.1997700
       48.960900        14.449100        5.0611600
       49.752800        14.369300        4.9262300
       50.557600        14.286700        4.7949100
       51.375300        14.199500        4.6670900
       52.206200        14.106100        4.5426700
       53.050600        14.002700        4.4215800
       53.908700        13.879300        4.3037100
       54.780600        13.749200        4.2303100
       55.666700        13.638100        4.1658000
       56.567000        13.534000        4.1022700
       57.482000        13.432300        4.0397100
       58.411700        13.331100        3.9781100
       59.356400        13.229300        3.9174400
       60.316500        13.127400        3.8577000
       61.292100        13.023900        3.7919500
       62.283400        12.910500        3.7246700
       63.290800        12.788000        3.6586000
       64.314500        12.655000        3.5936900
       65.354700        12.505000        3.5299400
       66.411800        12.347300        3.4927300
       67.485900        12.194700        3.4592700
       68.577500        12.039800        3.4261400
       69.686700        11.879200        3.3933200
       70.813800        11.709900        3.3608200
       71.959100        11.526300        3.3286200
       73.123000        11.326600        3.3143600
       74.305700        11.132000        3.3108800
       75.507600        10.934800        3.3074000
       76.728900        10.731200        3.3039200
       77.969900        10.518900        3.3004500
       79.231000        10.296500        3.2969800
       80.512500        10.062900        3.2935100
       81.814700        9.8194100        3.2900500
       83.138000        9.5654600        3.2722300
       84.482700        9.2779400        3.2442600
       85.849100        8.9592100        3.2165400
       87.237700        8.6078100        3.1890500
       88.648700        8.2187600        3.1617900
       90.082500        7.7796900        3.1403100
       91.539500        7.3055200        3.1358500
       93.020100        6.7895900        3.1313900
       94.524600        6.2187600        3.1269400
       96.053500        5.5811200        3.1225000
       97.607100        4.8618500        3.1180700
       99.185800        4.0414300        3.1136400
       100.79000        3.0927200        3.1092100
       102.42000        1.9756500        3.1048000
       104.07700       0.62165400        3.1003900
       105.76000       -1.1221400        3.1047200
       107.47100       -3.6629100        3.2163100
       109.20900       -7.1809300        7.6402600
       110.97500       -6.2302000        7.4166500
       112.77000       -9.0000600        7.0982800
       114.59400       -12.627200        8.4192600
       116.44800       -16.921600        10.051200
       118.33100       -23.585100        12.121600
       120.24500       -39.224100        21.932800
       122.19000       -51.770800        44.111900
       124.16600       -19.735600        77.700300
       126.17500        8.1133000        77.735500
       128.21500        23.766800        67.186100
       130.28900        30.120200        56.611000
       132.39700        33.356900        50.393300
       134.53800        35.431300        44.858300
       136.71400        36.719700        40.726600
       138.92500        37.819700        37.190600
       141.17200        38.696800        33.961800
       143.45600        39.222800        31.013200
       145.77600        39.563500        28.534200
       148.13400        39.837300        26.269500
       150.53000        40.072200        24.184500
       152.96400        40.402800        22.245600
       155.43900        40.454700        19.898100
       157.95300        40.156400        17.798400
       160.50700        39.552300        15.942000
       163.10300        38.913700        14.472500
       165.74200        38.298500        13.138400
       168.42200        37.641800        11.931000
       171.14600        36.996000        10.905800
       173.91500        36.373600        9.9687500
       176.72700        35.808600        9.1122100
       179.58600        35.209700        8.1468200
       182.49100        34.325600        7.3625100
       185.44200        33.500500        6.8101100
       188.44200        32.787900        6.4301200
       191.48900        32.167400        6.0862900
       194.58700        31.602500        5.7286100
       197.73400        31.020400        5.3749500
       200.93200        30.366800        5.0431100
       204.18200        29.658700        4.8889900
       207.48500        29.085100        4.8529800
       210.84000        28.580200        4.8172300
       214.25100        28.075100        4.7817500
       217.71600        27.590900        4.8442700
       221.23700        27.187900        4.9414900
       224.81600        26.833300        5.0407100
       228.45200        26.517300        5.1522800
       232.14700        26.234700        5.2663300
       235.90200        25.979900        5.3828900
       239.71700        25.748200        5.5020400
       243.59500        25.536900        5.6238200
       247.53500        25.343600        5.7483000
       251.53800        25.166400        5.8755400
       255.60700        25.003600        6.0055900
       259.74100        24.853600        6.1385200
       263.94200        24.714600        6.2743900
       268.21100        24.581100        6.4177400
       272.54900        24.463200        6.5715000
       276.95700        24.359900        6.7289500
       281.43700        24.267400        6.8901700
       285.98900        24.183200        7.0552400
       290.61500        24.096900        7.2246300
       295.31500        24.029100        7.4355400
       300.09200        23.989500        7.6526200
       304.94500        23.977000        7.8760200
       309.87800        23.991900        8.1059400
       314.89000        24.054700        8.3425900
       319.98300        24.151100        8.5338500
       325.15800        24.239400        8.7042100
       330.41800        24.334600        8.8779600
       335.76200        24.450500        9.0552000
       341.19200        24.620500        9.2359700
       346.71100        24.789900        9.3108300
       352.31900        24.931700        9.3826300
       358.01700        25.056400        9.4549700
       363.80800        25.177300        9.5278800
       369.69200        25.298100        9.6013300
       375.67200        25.422500        9.6753700
       381.74800        25.568000        9.7404400
       387.92200        25.702700        9.7822300
       394.19700        25.826200        9.8241900
       400.57300        25.948400        9.8663400
       407.05200        26.071900        9.9086600
       413.63500        26.199400        9.9511700
       420.32600        26.336100        9.9938600
       427.12400        26.502600        10.036700
       434.03200        26.659200        10.009100
       441.05200        26.791600        9.9804800
       448.18600        26.906400        9.9519800
       455.43500        27.011600        9.9235500
       462.80200        27.109200        9.8952100
       470.28700        27.200400        9.8669500
       477.89400        27.286000        9.8387700
       485.62300        27.366700        9.8106700
       493.47800        27.443300        9.7826400
       501.45900        27.515900        9.7544700
       509.57000        27.585200        9.7263900
       517.81200        27.651700        9.6983800
       526.18700        27.716100        9.6704500
       534.69800        27.779700        9.6426200
       543.34600        27.844200        9.6148500
       552.13400        27.912200        9.5871700
       561.06500        28.002600        9.5595700
       570.13900        28.120700        9.4862900
       579.36100        28.188800        9.3534300
       588.73200        28.216800        9.2224400
       598.25400        28.218400        9.0932800
       607.93000        28.197300        8.9659300
       617.76300        28.154400        8.8403600
       627.75500        28.086500        8.7165500
       637.90800        27.999800        8.6090500
       648.22600        27.901100        8.5065200
       658.71100        27.789200        8.4052200
       669.36500        27.660600        8.3051200
       680.19100        27.514200        8.2062200
       691.19300        27.349200        8.1084900
       702.37200        27.165900        8.0119300
       713.73300        26.973000        7.9165200
       725.27700        26.754600        7.7807100
       737.00800        26.480700        7.6311100
       748.92800        26.147300        7.4843900
       761.04200        25.758800        7.3404900
       773.35100        25.309100        7.1993500
       785.85900        24.789300        7.0609300
       798.57000        24.186700        6.9251700
       811.48600        23.483700        6.7920200
       824.61100        22.655600        6.6614300
       837.94900        21.664800        6.5333500
       851.50200        20.457200        6.4150200
       865.27400        18.952200        6.3044500
       879.26900        16.992400        6.1957900
       893.49100        14.248300        6.0890000
       907.94300        9.8470500        5.9840500
       922.62800      -0.72160900        5.8809100
       928.70000       -37.324600        5.8392600
       928.90000       -37.312500        33.911300
       937.55100        2.8380700        33.776200
       952.71500        12.167400        33.543600
       968.12400        16.939300        33.312600
       983.78300        20.258300        33.083200
       999.69500        22.859500        32.855400
       1015.8600        25.041600        32.629100
       1032.2900        26.966100        32.404400
       1048.9900        28.760100        32.181200
       1065.9600        30.566800        31.771300
       1083.2000        32.099500        31.098600
       1100.7200        33.323600        30.440200
       1118.5200        34.385000        29.795600
       1136.6100        35.308600        29.164700
       1155.0000        36.111700        28.547200
       1173.6800        36.803900        27.942700
       1192.6600        37.387300        27.351100
       1211.9500        37.853100        26.772100
       1231.5500        38.146100        26.205300
       1251.4700        38.281000        25.831600
       1271.7200        38.327100        25.662000
       1292.2900        38.537900        25.740300
       1313.1900        38.875500        25.818900
       1334.4300        39.278500        25.897700
       1356.0100        39.728600        25.976500
       1377.9400        40.218600        26.055600
       1400.2300        40.746700        26.135000
       1422.8800        41.316300        26.214800
       1445.8900        41.939900        26.294600
       1469.2800        42.641700        26.315600
       1493.0400        43.245600        26.246200
       1517.1900        44.038300        26.481200
       1541.7300        45.198100        26.466300
       1566.6700        46.173200        25.920400
       1592.0100        46.918000        25.385600
       1617.7600        47.556100        24.861900
       1643.9200        48.122500        24.348800
       1670.5100        48.635200        23.846600
       1697.5300        49.104800        23.354700
       1724.9900        49.546900        22.872800
       1752.8900        49.956800        22.385200
       1781.2400        50.331500        21.902800
       1810.0500        50.675300        21.426800
       1839.3200        50.990700        20.960900
       1869.0700        51.282500        20.505100
       1899.3000        51.553300        20.059500
       1930.0200        51.805300        19.623600
       1961.2400        52.040200        19.197100
       1992.9600        52.256600        18.779600
       2025.2000        52.469300        18.380000
       2057.9500        52.670700        17.972900
       2091.2400        52.852800        17.572600
       2125.0600        53.021000        17.180400
       2159.4300        53.176900        16.795800
       2194.3600        53.321000        16.418300
       2229.8500        53.453600        16.048300
       2265.9200        53.575600        15.685900
       2302.5700        53.688200        15.330800
       2339.8100        53.791600        14.982700
       2377.6600        53.885500        14.641200
       2416.1100        53.971300        14.307700
       2455.1900        54.049000        13.980200
       2494.9000        54.119200        13.660300
       2535.2600        54.182100        13.346600
       2576.2600        54.238200        13.039900
       2617.9300        54.287700        12.739200
       2660.2700        54.331000        12.445600
       2703.3000        54.368400        12.157600
       2747.0300        54.399800        11.875800
       2791.4600        54.425500        11.600300
       2836.6100        54.446000        11.331100
       2882.4900        54.461700        11.067700
       2929.1100        54.472400        10.809800
       2976.4800        54.478200        10.557600
       3024.6300        54.479500        10.311200
       3073.5500        54.476400        10.070100
       3123.2600        54.468900        9.8343000
       3173.7800        54.457300        9.6039300
       3225.1100        54.441500        9.3787100
       3277.2700        54.421800        9.1585800
       3330.2800        54.398100        8.9433600
       3384.1500        54.370600        8.7329600
       3438.8800        54.339100        8.5274100
       3494.5000        54.303900        8.3265300
       3551.0200        54.264900        8.1302100
       3608.4600        54.222000        7.9383100
       3666.8200        54.175300        7.7508600
       3726.1300        54.124600        7.5676300
       3786.4000        54.069900        7.3887300
       3847.6400        54.011300        7.2138100
       3909.8700        53.948200        7.0429000
       3973.1100        53.880800        6.8760000
       4037.3800        53.808800        6.7129100
       4102.6800        53.732100        6.5537200
       4169.0300        53.650200        6.3980700
       4236.4600        53.562900        6.2461000
       4304.9800        53.469800        6.0975800
       4374.6200        53.370300        5.9524400
       4445.3700        53.263900        5.8107100
       4517.2700        53.149900        5.6723300
       4590.3300        53.027600        5.5371500
       4664.5800        52.895900        5.4050700
       4740.0300        52.753600        5.2760600
       4816.6900        52.599400        5.1501500
       4894.6000        52.431500        5.0271000
       4973.7700        52.247400        4.9068300
       5054.2100        52.044300        4.7893900
       5135.9600        51.818500        4.6747400
       5219.0300        51.564900        4.5627000
       5303.4400        51.276500        4.4533000
       5389.2200        50.943100        4.3464000
       5476.3900        50.549800        4.2420700
       5564.9700        50.072100        4.1401400
       5654.9800        49.466200        4.0405700
       5746.4400        48.641300        3.9432400
       5839.3900        47.347900        3.8482200
       5933.8300        44.122200        3.7554100
       5964.2000        31.052500        3.7263700
       5964.4000        31.054300        10.937800
       6029.8100        45.929900        10.712700
       6127.3300        47.857500        10.390000
       6226.4400        48.595100        10.076800
       6327.1500        48.651200        9.7731100
       6429.4800        46.512700        9.4786000
       6440.3000        41.068600        9.4482500
       6440.5000        41.069900        13.133300
       6533.4800        49.485600        12.807600
       6639.1500        50.633900        12.452400
       6746.5400        51.135300        12.107100
       6834.7000        48.346200        11.834600
       6834.9000        48.347200        13.383200
       6855.6500        51.093100        13.327000
       6966.5400        52.559700        13.033000
       7079.2200        53.348500        12.742500
       7193.7200        53.961700        12.455700
       7310.0700        54.475600        12.173100
       7428.3100        54.920800        11.894200
       7548.4500        55.313200        11.619500
       7670.5400        55.663400        11.348900
       7794.6100        55.978600        11.082600
       7920.6800        56.264000        10.820700
       8048.7900        56.523300        10.563000
       8178.9800        56.759900        10.309700
       8311.2600        56.976100        10.061000
       8445.6900        57.174400        9.8169200
       8582.2900        57.356400        9.5769600
       8721.1100        57.523300        9.3414900
       8862.1600        57.676700        9.1107800
       9005.5000        57.817900        8.8844800
       9151.1600        57.947500        8.6624500
       9299.1700        58.066400        8.4449400
       9449.5800        58.175600        8.2319900
       9602.4200        58.275900        8.0234900
       9757.7300        58.367700        7.8191300
       9915.5500        58.451600        7.6195600
       10075.900        58.528700        7.4239500
       10238.900        58.598700        7.2326000
       10404.500        58.662400        7.0454400
       10572.800        58.720200        6.8624400
       10743.800        58.772400        6.6835600
       10917.600        58.819400        6.5087200
       11094.200        58.861600        6.3378700
       11273.600        58.899200        6.1709700
       11455.900        58.932500        6.0079500
       11641.200        58.961900        5.8487600
       11829.500        58.987400        5.6933200
       12020.800        59.009500        5.5415900
       12215.300        59.028200        5.3934900
       12412.800        59.043900        5.2489700
       12613.600        59.056600        5.1079700
       12817.600        59.066600        4.9704100
       13025.000        59.074000        4.8362400
       13235.600        59.079100        4.7053900
       13449.700        59.081800        4.5778000
       13667.200        59.082500        4.4534100
       13888.300        59.081200        4.3321400
       14112.900        59.078000        4.2139500
       14341.200        59.073100        4.0987600
       14573.100        59.066600        3.9865100
       14808.900        59.058600        3.8771400
       15048.400        59.049100        3.7706000
       15291.800        59.038300        3.6668100
       15539.100        59.026200        3.5657200
       15790.400        59.013000        3.4672700
       16045.800        58.998700        3.3714000
       16305.400        58.983400        3.2780500
       16569.100        58.967100        3.1871700
       16837.100        58.950000        3.0987000
       17109.400        58.932000        3.0125800
       17386.100        58.913300        2.9287500
       17667.400        58.893800        2.8471700
       17953.100        58.873700        2.7677800
       18243.500        58.852900        2.6905300
       18538.600        58.831500        2.6153600
       18838.400        58.809600        2.5422300
       19143.100        58.787200        2.4710900
       19452.700        58.764300        2.4018800
       19767.400        58.740900        2.3345600
       20087.100        58.717100        2.2690900
       20412.000        58.692900        2.2054100
       20742.100        58.668300        2.1434800
       21077.600        58.643300        2.0832600
       21418.500        58.617900        2.0247100
       21765.000        58.592200        1.9677700
       22117.000        58.566200        1.9124100
       22474.700        58.539800        1.8586000
       22838.200        58.513100        1.8062800
       23207.600        58.486000        1.7554200
       23583.000        58.458600        1.7059900
       23964.400        58.430800        1.6579400
       24352.000        58.402700        1.6112400
       24745.900        58.374200        1.5658500
       25146.200        58.345300        1.5217400
       25552.900        58.316000        1.4788700
       25966.200        58.286200        1.4372200
       26386.100        58.255900        1.3967400
       26812.900        58.225000        1.3574100
       27246.600        58.193600        1.3191900
       27687.300        58.161600        1.2820600
       28135.100        58.128800        1.2459900
       28590.200        58.095400        1.2109400
       29052.600        58.061200        1.1768900
       29522.500        58.029200        1.1438200
       30000.000        57.979300        1.1116900
       30400.000        57.915200        1.0689900
       30800.000        57.883900        1.0440800
       31200.000        57.852100        1.0200700
       31500.000        57.827800        1.0026200
       31900.000        57.794600       0.98006400
       32300.000        57.760600       0.95828800
       32600.000        57.734500       0.94244400
       33000.000        57.698800       0.92194600
       33400.000        57.661900       0.90205100
       33800.000        57.623500       0.88281400
       34100.000        57.593800       0.86880200
       34500.000        57.552600       0.85064800
       34900.000        57.509500       0.83307700
       35300.000        57.464300       0.81602400
       35700.000        57.416500       0.79949300
       36030.000        57.374900       0.78624200
       36300.000        57.339200       0.77573400
       36500.000        57.311700       0.76795000
       36800.000        57.268600       0.75670300
       37000.000        57.238500       0.74920500
       37300.000        57.191000       0.73837700
       37500.000        57.157600       0.73115900
       37800.000        57.104600       0.72073100
       38000.000        57.067100       0.71377900
       38300.000        57.007100       0.70373000
       38400.000        56.986000       0.70038100
       38500.000        56.964200       0.69703100
       38650.000        56.930400       0.69218700
       38800.000        56.894900       0.68734300
       38900.000        56.870300       0.68411400
       39000.000        56.844900       0.68088500
       39150.000        56.805000       0.67621300
       39300.000        56.762800       0.67154100
       39400.000        56.733300       0.66842600
       39500.000        56.702600       0.66531100
       39650.000        56.654000       0.66080300
       39800.000        56.602000       0.65629400
       39900.000        56.565300       0.65328900
       40000.000        56.526600       0.65028300
       40070.000        56.498400       0.64823700
       40150.000        56.464700       0.64589900
       40220.000        56.434000       0.64385300
       40300.000        56.397200       0.64151500
       40400.000        56.348600       0.63859200
       40450.000        56.323100       0.63713000
       40500.000        56.296700       0.63566900
       40570.000        56.258200       0.63369300
       40650.000        56.211700       0.63143500
       40720.000        56.168500       0.62946000
       40800.000        56.116100       0.62720200
       40850.000        56.081400       0.62579100
       40900.000        56.045200       0.62437900
       40950.000        56.007100       0.62296800
       41000.000        55.967200       0.62155700
       41070.000        55.907600       0.61964800
       41110.000        55.871400       0.61855800
       41150.000        55.833500       0.61746700
       41180.000        55.803900       0.61664900
       41220.000        55.762600       0.61555800
       41260.000        55.719000       0.61446700
       41300.000        55.672900       0.61337700
       41320.000        55.648900       0.61283100
       41350.000        55.611400       0.61201300
       41400.000        55.544900       0.61065000
       41420.000        55.516600       0.61010400
       41450.000        55.472400       0.60928600
       41480.000        55.425700       0.60846800
       41500.000        55.392900       0.60792300
       41530.000        55.341300       0.60713300
       41570.000        55.266900       0.60607900
       41590.000        55.227100       0.60555200
       41610.000        55.185300       0.60502500
       41630.000        55.141300       0.60449900
       41650.000        55.094900       0.60397200
       41665.000        55.058300       0.60357700
       41680.000        55.020000       0.60318100
       41700.000        54.966100       0.60265500
       41720.000        54.908600       0.60212800
       41740.000        54.846900       0.60160100
       41760.000        54.780300       0.60107400
       41780.000        54.708100       0.60054700
       41800.000        54.629300       0.60002000
       41810.000        54.586900       0.59975700
       41820.000        54.542400       0.59949400
       41835.000        54.471000       0.59909800
       41850.000        54.393100       0.59870300
       41865.000        54.307500       0.59830800
       41872.000        54.264500       0.59812400
       41880.000        54.212600       0.59791300
       41887.000        54.164500       0.59772900
       41895.000        54.106000       0.59751800
       41903.000        54.043300       0.59730700
       41910.000        53.984600       0.59712300
       41915.000        53.940000       0.59699100
       41920.000        53.893100       0.59685900
       41925.000        53.843500       0.59672800
       41930.000        53.791000       0.59659600
       41938.000        53.699700       0.59638500
       41945.000        53.611400       0.59620100
       41949.000        53.556600       0.59609500
       41953.000        53.498100       0.59599000
       41957.000        53.435600       0.59588500
       41960.000        53.385600       0.59580600
       41964.000        53.314100       0.59570000
       41968.000        53.236300       0.59559500
       41972.000        53.151200       0.59549000
       41975.000        53.081400       0.59541100
       41979.000        52.979000       0.59530500
       41983.000        52.863100       0.59520000
       41984.500        52.815500       0.59516000
       41986.000        52.765000       0.59512100
       41988.000        52.693100       0.59506800
       41990.000        52.614900       0.59501500
       41991.500        52.551400       0.59497600
       41993.000        52.482600       0.59493600
       41994.500        52.408500       0.59489700
       41996.000        52.327400       0.59485700
       41997.500        52.238500       0.59481800
       41999.000        52.139200       0.59477800
       42000.000        52.066500       0.59475200
       42001.000        51.987100       0.59472600
       42002.500        51.853400       0.59468600
       42004.000        51.695700       0.59464700
       42004.800        51.598900       0.59462600
       42005.500        51.504300       0.59460700
       42006.300        51.383000       0.59458600
       42007.000        51.260700       0.59456800
       42007.800        51.098900       0.59454700
       42008.500        50.928400       0.59452800
       42009.300        50.685900       0.59450700
       42010.000        50.407800       0.59448900
       42010.600        50.087500       0.59447300
       42011.200        49.624700       0.59445700
       42011.800        48.852100       0.59444100
       42012.300        47.529800       0.59442800
       42012.300        47.520900       0.59442800
       42012.400        47.801900        1.8109600
       42012.500        48.125800        3.0275000
       42012.700        48.768100        5.4605600
       42013.100        50.001500        10.326700
       42014.000        52.362800       0.59438500
       42014.100        51.855300       0.59438200
       42014.200        51.375000       0.59437800
       42015.100        51.364600        6.0233400
       42015.900        51.774700        1.0225300
       42016.700        50.538200        2.2978400
       42017.500        50.704600        3.4740100
       42018.200        51.306100        3.4634900
       42019.000        51.513700        3.4515300
       42019.500        51.608900        3.4443100
       42020.000        51.689500        3.4371000
       42020.500        51.759700        3.4298900
       42021.000        51.822900        3.4226700
       42021.500        51.878600        3.4167300
       42022.000        51.929800        3.4108000
       42022.500        51.977200        3.4055000
       42023.000        52.021600        3.4002000
       42023.500        52.061600        3.3956000
       42024.000        52.099800        3.3910000
       42024.500        52.135700        3.3883200
       42025.000        52.170400        3.3856500
       42026.000        52.234300        3.3803700
       42027.000        52.291800        3.3750500
       42027.800        52.333700        3.3742600
       42028.500        52.369500        3.3735700
       42029.200        52.403500        3.3728800
       42030.000        52.439900        3.3720900
       42031.500        52.504100        3.3751000
       42033.000        52.564900        3.3781100
       42034.000        52.603000        3.3815000
       42035.000        52.640200        3.3849000
       42038.000        52.745400        3.3967100
       42040.000        52.811700        3.4045300
       42043.000        52.906200        3.4146600
       42045.000        52.966200        3.4198500
       42048.000        53.051000        3.4249600
       42050.000        53.104500        3.4266700
       42052.000        53.155500        3.4271400
       42055.000        53.226500        3.4259800
       42058.000        53.291900        3.4229400
       42060.000        53.332300        3.4209100
       42063.000        53.389000        3.4173900
       42065.000        53.424300        3.4150500
       42068.000        53.474000        3.4119500
       42070.000        53.505100        3.4098800
       42075.000        53.577300        3.4068600
       42080.000        53.643500        3.4060700
       42085.000        53.705800        3.4073500
       42090.000        53.765200        3.4086200
       42095.000        53.821600        3.4091300
       42100.000        53.875200        3.4096500
       42105.000        53.927000        3.4101600
       42110.000        53.976100        3.4106800
       42115.000        54.022100        3.4099400
       42120.000        54.065400        3.4092000
       42130.000        54.146100        3.4077100
       42137.000        54.199000        3.4071000
       42145.000        54.255900        3.4063900
       42153.000        54.309600        3.4056900
       42160.000        54.354100        3.4050800
       42168.000        54.402600        3.4043400
       42175.000        54.443100        3.4036900
       42183.000        54.487300        3.4029400
       42190.000        54.524300        3.4022900
       42200.000        54.574800        3.4013700
       42210.000        54.622800        3.4004400
       42220.000        54.668600        3.3995100
       42230.000        54.712300        3.3985800
       42245.000        54.774400        3.3967400
       42260.000        54.832500        3.3949100
       42280.000        54.904800        3.3924600
       42300.000        54.972100        3.3900100
       42310.000        55.004100        3.3886300
       42320.000        55.034900        3.3872400
       42350.000        55.121600        3.3830900
       42370.000        55.175100        3.3803200
       42400.000        55.249300        3.3761700
       42420.000        55.295700        3.3744600
       42450.000        55.362300        3.3718800
       42480.000        55.425200        3.3693100
       42500.000        55.465000        3.3676000
       42530.000        55.521900        3.3637100
       42570.000        55.592800        3.3585200
       42610.000        55.659200        3.3533400
       42650.000        55.722000        3.3481500
       42680.000        55.766700        3.3442600
       42720.000        55.822600        3.3390700
       42760.000        55.875000        3.3338900
       42800.000        55.923900        3.3287000
       42820.000        55.947300        3.3264300
       42850.000        55.981700        3.3230200
       42900.000        56.036700        3.3173500
       42950.000        56.088900        3.3116700
       43000.000        56.138300        3.3060000
       43070.000        56.203700        3.2991000
       43150.000        56.274300        3.2912200
       43220.000        56.332700        3.2843200
       43300.000        56.396500        3.2764400
       43350.000        56.434700        3.2706600
       43400.000        56.471300        3.2648800
       43450.000        56.506700        3.2591000
       43500.000        56.541200        3.2533200
       43570.000        56.587500        3.2442000
       43650.000        56.637300        3.2337800
       43720.000        56.678800        3.2246600
       43800.000        56.723900        3.2142400
       43850.000        56.751000        3.2079200
       43900.000        56.777300        3.2016000
       43950.000        56.803000        3.1952700
       44000.000        56.828000        3.1889500
       44070.000        56.861800        3.1800500
       44150.000        56.898900        3.1698800
       44220.000        56.930000        3.1609700
       44300.000        56.963800        3.1508000
       44400.000        57.004400        3.1393800
       44500.000        57.043400        3.1279600
       44570.000        57.069800        3.1202700
       44650.000        57.099200        3.1114900
       44720.000        57.124200        3.1038000
       44800.000        57.151500        3.0950100
       44900.000        57.184800        3.0854700
       45000.000        57.217800        3.0759200
       45150.000        57.265700        3.0608500
       45300.000        57.311300        3.0457800
       45400.000        57.340600        3.0357400
       45500.000        57.369300        3.0256900
       45650.000        57.410800        3.0103200
       45800.000        57.450400        2.9949400
       45900.000        57.475900        2.9846900
       46000.000        57.500900        2.9744400
       46150.000        57.537100        2.9590400
       46300.000        57.571700        2.9436400
       46400.000        57.594100        2.9333800
       46500.000        57.616000        2.9231100
       46650.000        57.647700        2.9077100
       46800.000        57.678300        2.8923100
       46900.000        57.698000        2.8820500
       47000.000        57.717400        2.8717800
       47150.000        57.745600        2.8564900
       47300.000        57.772700        2.8412000
       47400.000        57.790200        2.8310000
       47500.000        57.807200        2.8208100
       47650.000        57.832100        2.8059500
       47800.000        57.856100        2.7910900
       47900.000        57.871700        2.7811800
       48000.000        57.886800        2.7712700
       48300.000        57.930600        2.7426300
       48500.000        57.958300        2.7235300
       48800.000        57.997800        2.6956700
       49000.000        58.022800        2.6770900
       49300.000        58.058600        2.6504900
       49500.000        58.081500        2.6327500
       49800.000        58.114400        2.6068500
       49900.000        58.125000        2.5982200
       50000.000        58.135300        2.5895900
       50300.000        58.165500        2.5650400
       50500.000        58.184900        2.5486800
       50800.000        58.213000        2.5241300
       51000.000        58.231000        2.5077700
       51300.000        58.257000        2.4845500
       51500.000        58.273700        2.4690600
       51800.000        58.297800        2.4458400
       52000.000        58.313400        2.4303600
       52300.000        58.336100        2.4083700
       52500.000        58.350700        2.3937100
       52800.000        58.372000        2.3717200
       53000.000        58.385900        2.3570600
       53300.000        58.406000        2.3357500
       53500.000        58.418900        2.3215500
       53800.000        58.437500        2.3002400
       54000.000        58.449600        2.2860400
       54300.000        58.467000        2.2657500
       54500.000        58.478300        2.2522300
       54800.000        58.494700        2.2319400
       55000.000        58.505500        2.2184100
       55300.000        58.521000        2.1987700
       55500.000        58.531000        2.1856700
       55800.000        58.545500        2.1660300
       56000.000        58.554800        2.1529400
       56200.000        58.563900        2.1404000
       56400.000        58.572800        2.1278600
       56600.000        58.581400        2.1153100
       56800.000        58.589900        2.1027700
       57000.000        58.598200        2.0906700
       57200.000        58.606200        2.0785700
       57530.000        58.619100        2.0586000
       57660.000        58.624100        2.0509500
       57800.000        58.629400        2.0427100
       58000.000        58.636800        2.0309400
       58300.000        58.647700        2.0134700
       58500.000        58.654600        2.0018200
       58800.000        58.664700        1.9849500
       59000.000        58.671300        1.9737000
       59300.000        58.680800        1.9568300
       59540.000        58.688200        1.9433300
       59670.000        58.692100        1.9362300
       59800.000        58.696000        1.9291300
       59900.000        58.698900        1.9237300
       60000.000        58.701900        1.9183200
       60400.000        58.713200        1.8970400
       60800.000        58.724000        1.8757600
       61100.000        58.731700        1.8603200
       61500.000        58.741700        1.8397300
       61900.000        58.751300        1.8196800
       62300.000        58.760700        1.7996200
       62600.000        58.767300        1.7848900
       63000.000        58.775600        1.7652600
       63500.000        58.785500        1.7416100
       64000.000        58.794700        1.7179500
       64500.000        58.803400        1.6952800
       65000.000        58.811600        1.6726100
       65500.000        58.819300        1.6508400
       65900.000        58.825200        1.6334200
       66400.000        58.832100        1.6124600
       66830.000        58.837800        1.5944300
       67100.000        58.841200        1.5834500
       67400.000        58.844900        1.5712500
       68000.000        58.851800        1.5474300
       68500.000        58.857200        1.5282000
       69000.000        58.862300        1.5089700
       69500.000        58.867100        1.4904900
       70000.000        58.871500        1.4720000
       71000.000        58.879700        1.4366600
       72000.000        58.887200        1.4026500
       72800.000        58.892600        1.3766300
       73500.000        58.897000        1.3538700
       74200.000        58.901000        1.3322200
       74960.000        58.905100        1.3087200
       75500.000        58.907800        1.2924600
       76000.000        58.910000        1.2776700
       77110.000        58.914400        1.2457700
       78600.000        58.919400        1.2047400
       79300.000        58.921200        1.1861000
       80000.000        58.922900        1.1679100
       81500.000        58.925600        1.1302100
       83000.000        58.927400        1.0943900
       84000.000        58.928200        1.0714800
       85000.000        58.928600        1.0493200
       86500.000        58.928800        1.0174400
       88000.000        58.928500       0.98705300
       89000.000        58.928000       0.96757700
       90000.000        58.927500       0.94869700
       91500.000        58.926100       0.92129200
       93000.000        58.924700       0.89510500
       94000.000        58.923500       0.87828700
       95000.000        58.922300       0.86195900
       96500.000        58.920100       0.83812300
       98000.000        58.917800       0.81529800
       99000.000        58.916100       0.80061600
       99500.000        58.915200       0.79342800
       100000.00        58.914300       0.78634100
