;  Atomic scattering factors for Ra.
;   
;  Concatenation of data from CXRO <http://www-cxro.lbl.gov>
;  and LLNL <http://www-phys.llnl.gov/V_Div/scattering/asf.html>
;  
;  E (eV) f1 f2
;---------------
       10.000000       -9999.0000      0.041615500
       10.161700       -9999.0000      0.044789100
       10.326100       -9999.0000      0.048204700
       10.493100       -9999.0000      0.051880800
       10.662800       -9999.0000      0.055837300
       10.835300       -9999.0000      0.060095400
       11.010600       -9999.0000      0.064678400
       11.188600       -9999.0000      0.069610800
       11.369600       -9999.0000      0.074919300
       11.553500       -9999.0000      0.081023900
       11.740400       -9999.0000      0.089565800
       11.930300       -9999.0000      0.098358800
       12.123200       -9999.0000       0.10604200
       12.319300       -9999.0000       0.11432500
       12.518600       -9999.0000       0.12325600
       12.721000       -9999.0000       0.13414400
       12.926800       -9999.0000       0.14600500
       13.135900       -9999.0000       0.15922300
       13.348300       -9999.0000       0.17783000
       13.564200       -9999.0000       0.19861200
       13.783600       -9999.0000       0.21814700
       14.006600       -9999.0000       0.23823200
       14.233100       -9999.0000       0.26140400
       14.463300       -9999.0000       0.31003900
       14.697300       -9999.0000       0.34630100
       14.935000       -9999.0000       0.39432200
       15.176500       -9999.0000       0.45073800
       15.422000       -9999.0000       0.50768500
       15.671400       -9999.0000       0.60165100
       15.924900       -9999.0000       0.77410200
       16.182500       -9999.0000        1.0248800
       16.444200       -9999.0000        1.5188300
       16.710200       -9999.0000        2.2198400
       16.980500       -9999.0000        3.0729400
       17.255100       -9999.0000        3.8362700
       17.534200       -9999.0000        4.6568300
       17.817800       -9999.0000        5.5390300
       18.106000       -9999.0000        6.3365400
       18.398900       -9999.0000        7.2488900
       18.696400       -9999.0000        7.7944100
       18.998800       -9999.0000        8.3789500
       19.306100       -9999.0000        9.0073300
       19.618400       -9999.0000        9.3488200
       19.935700       -9999.0000        9.6615500
       20.258200       -9999.0000        9.9461100
       20.585800       -9999.0000        10.214000
       20.918800       -9999.0000        10.489000
       21.257100       -9999.0000        10.666600
       21.600900       -9999.0000        10.790600
       21.950300       -9999.0000        10.916100
       22.305300       -9999.0000        10.962900
       22.666100       -9999.0000        10.990200
       23.032700       -9999.0000        11.017600
       23.405300       -9999.0000        11.045100
       23.783800       -9999.0000        11.078800
       24.168500       -9999.0000        11.120100
       24.559400       -9999.0000        11.161500
       24.956600       -9999.0000        11.203000
       25.360300       -9999.0000        11.244700
       25.770500       -9999.0000        11.265400
       26.187300       -9999.0000        11.162800
       26.610900       -9999.0000        11.061200
       27.041300       -9999.0000        10.960600
       27.478600       -9999.0000        10.860800
       27.923100       -9999.0000        10.694700
       28.374700       -9999.0000        10.338000
       28.833700       -9999.0000        9.9932100
       29.300000        10.023100        9.6599300
       29.773900        10.386900        9.3138700
       30.255500        10.673100        8.8015100
       30.744900        10.837800        8.3173600
       31.242100        10.927600        7.8598200
       31.747500        10.956400        7.4274600
       32.260900        10.915600        7.0379400
       32.782700        10.875000        6.7282600
       33.313000        10.840100        6.4322100
       33.851800        10.797500        6.1491800
       34.399300        10.744900        5.8786100
       34.955700        10.682100        5.6199400
       35.521100        10.609400        5.3726600
       36.095600        10.527500        5.1362600
       36.679400        10.437800        4.9102500
       37.272700        10.344000        4.6935600
       37.875500        10.238800        4.4712500
       38.488200        10.117500        4.2594500
       39.110700        9.9837200        4.0577000
       39.743200        9.8394600        3.8654900
       40.386100        9.6854800        3.6823900
       41.039300        9.5223000        3.5079700
       41.703100        9.3504100        3.3418100
       42.377600        9.1709400        3.1835100
       43.063000        8.9865700        3.0321000
       43.759500        8.7901200        2.8762400
       44.467300        8.5781700        2.7283900
       45.186500        8.3535700        2.5881400
       45.917400        8.1169300        2.4551000
       46.660000        7.8683300        2.3289000
       47.414700        7.6077700        2.2091800
       48.181600        7.3363700        2.0956200
       48.960900        7.0558600        1.9801000
       49.752800        6.7505600        1.8649500
       50.557600        6.4230600        1.7565000
       51.375300        6.0723900        1.6543600
       52.206200        5.6911500        1.5597800
       53.050600        5.2956100        1.4969300
       53.908700        4.8929500        1.4366100
       54.780600        4.4840200        1.3665600
       55.666700        4.0155000        1.2616200
       56.567000        3.4745900        1.2000500
       57.482000        2.9231400        1.1697000
       58.411700        2.3360100        1.1401100
       59.356400        1.7009400        1.1236900
       60.316500        1.0089700        1.1214400
       61.292100       0.25475400        1.1278500
       62.283400      -0.58238900        1.1730800
       63.290800       -1.4957700        1.2371700
       64.314500       -2.5105100        1.3496400
       65.354700       -3.6545200        1.5206400
       66.411800       -4.9366800        1.7554700
       67.485900       -6.3463200        2.1485900
       68.577500       -7.8909200        2.6297200
       69.686700       -9.6351500        3.2186100
       70.813800       -11.713300        3.9393500
       71.959100       -14.529700        4.8541800
       73.123000       -17.776600        7.2488500
       74.305700       -20.992800        10.825000
       75.507600       -23.606600        16.165700
       76.728900       -23.484300        24.197600
       77.969900       -20.013300        28.918900
       79.231000       -16.577100        32.559700
       80.512500       -13.565200        34.391200
       81.814700       -11.145400        36.325700
       83.138000       -8.6746100        38.369000
       84.482700       -5.5292100        40.026800
       85.849100       -2.7968200        41.097800
       87.237700      -0.16206000        42.197600
       88.648700        2.9175800        42.949500
       90.082500        5.5723300        43.163900
       91.539500        8.0648400        43.379500
       93.020100        10.600900        43.596100
       94.524600        13.552700        43.550700
       96.053500        16.078700        42.715800
       97.607100        18.245300        41.896800
       99.185800        20.215800        41.093600
       100.79000        22.111700        40.305700
       102.42000        24.128300        39.533000
       104.07700        26.102200        38.195300
       105.76000        27.622900        36.736700
       107.47100        28.884800        35.333700
       109.20900        29.972000        33.984300
       110.97500        30.926200        32.686500
       112.77000        31.776500        31.438100
       114.59400        32.548000        30.237500
       116.44800        33.271500        29.082800
       118.33100        34.027400        27.972100
       120.24500        34.681200        26.614200
       122.19000        35.151300        25.311900
       124.16600        35.491900        24.073300
       126.17500        35.748900        22.895400
       128.21500        35.939500        21.775000
       130.28900        36.077600        20.709500
       132.39700        36.177600        19.696200
       134.53800        36.269000        18.732400
       136.71400        36.317900        17.721500
       138.92500        36.287000        16.752700
       141.17200        36.197300        15.837000
       143.45600        36.068800        14.971300
       145.77600        35.909400        14.153000
       148.13400        35.724600        13.379300
       150.53000        35.519500        12.648000
       152.96400        35.298000        11.956600
       155.43900        35.064400        11.303000
       157.95300        34.823500        10.685200
       160.50700        34.583300        10.101100
       163.10300        34.372300        9.5489800
       165.74200        34.135600        8.9162900
       168.42200        33.837500        8.3171600
       171.14600        33.497000        7.7583100
       173.91500        33.131500        7.2370000
       176.72700        32.744900        6.7507200
       179.58600        32.336600        6.2971100
       182.49100        31.886900        5.8739900
       185.44200        31.411700        5.5523700
       188.44200        30.992700        5.2907200
       191.48900        30.601400        5.0414200
       194.58700        30.223900        4.8038500
       197.73400        29.854300        4.5774900
       200.93200        29.489200        4.3617800
       204.18200        29.126200        4.1562500
       207.48500        28.766300        3.9582900
       210.84000        28.399700        3.7649600
       214.25100        28.024400        3.5810800
       217.71600        27.638700        3.4061800
       221.23700        27.233400        3.2398300
       224.81600        26.796000        3.1092500
       228.45200        26.381700        3.0207400
       232.14700        25.974000        2.9347400
       235.90200        25.556700        2.8512000
       239.71700        25.099100        2.7794300
       243.59500        24.658600        2.7858100
       247.53500        24.237700        2.7922100
       251.53800        23.809800        2.8055300
       255.60700        23.391600        2.8389800
       259.74100        22.976900        2.8728300
       263.94200        22.545600        2.9089000
       268.21100        22.112400        2.9759500
       272.54900        21.677800        3.0445500
       276.95700        21.232200        3.1147300
       281.43700        20.761200        3.1865300
       285.98900        20.245300        3.2918300
       290.61500        19.728400        3.4337200
       295.31500        19.178300        3.5817200
       300.09200        18.609500        3.8057500
       304.94500        18.051500        4.0609500
       309.87800        17.486900        4.3380300
       314.89000        16.901300        4.6359700
       319.98300        16.249900        4.9613500
       325.15800        15.603000        5.4391200
       330.41800        14.996900        5.9629000
       335.76200        14.401800        6.4992300
       341.19200        13.783800        7.0814700
       346.71100        13.141100        7.7790600
       352.31900        12.547600        8.5825700
       358.01700        12.024700        9.4690600
       363.80800        11.602000        10.398000
       369.69200        11.184800        11.330300
       375.67200        10.794400        12.346100
       381.74800        10.458400        13.453100
       387.92200        10.226600        14.659300
       394.19700        10.104900        15.889500
       400.57300        10.119400        17.199500
       407.05200        10.240400        18.451700
       413.63500        10.448800        19.769100
       420.32600        11.063200        21.069700
       427.12400        11.612400        22.022100
       434.03200        12.059500        23.017600
       441.05200        12.590000        24.058000
       448.18600        13.244900        24.987700
       455.43500        13.872400        25.837600
       462.80200        14.490100        26.716300
       470.28700        15.172000        27.625000
       477.89400        16.213000        28.459600
       485.62300        17.121500        28.911700
       493.47800        17.845100        29.371100
       501.45900        18.529900        29.837700
       509.57000        19.197900        30.311500
       517.81200        19.860000        30.787000
       526.18700        20.559300        31.270000
       534.69800        21.279200        31.673800
       543.34600        21.935500        32.023600
       552.13400        22.546800        32.377300
       561.06500        23.088400        32.734900
       570.13900        23.598500        33.194600
       579.36100        24.177900        33.725000
       588.73200        24.813400        34.263800
       598.25400        25.518500        34.811200
       607.93000        26.265100        35.315100
       617.76300        27.030700        35.813600
       627.75500        27.833100        36.319200
       637.90800        28.774800        36.799400
       648.22600        29.699300        37.151700
       658.71100        30.588000        37.507400
       669.36500        31.494800        37.870000
       680.19100        32.458300        38.255300
       691.19300        33.497900        38.644600
       702.37200        34.866800        39.037800
       713.73300        36.255900        38.900400
       725.27700        37.379500        38.631700
       737.00800        38.369300        38.363700
       748.92800        39.281600        38.097600
       761.04200        40.144100        37.832400
       773.35100        40.978300        37.557800
       785.85900        41.780700        37.246300
       798.57000        42.515200        36.905200
       811.48600        43.194900        36.567000
       824.61100        43.831600        36.232000
       837.94900        44.433900        35.900400
       851.50200        45.001300        35.557200
       865.27400        45.525400        35.201400
       879.26900        45.983400        34.834900
       893.49100        46.368200        34.472300
       907.94300        46.653800        34.113600
       922.62800        46.691900        33.758800
       937.55100        46.727700        33.905400
       952.71500        46.900500        34.182100
       968.12400        47.313100        34.575900
       983.78300        47.932500        34.974000
       999.69500        48.778000        35.302600
       1015.8600        49.948200        35.554000
       1032.2900        50.956500        35.099600
       1048.9900        51.707800        34.712400
       1065.9600        52.373200        34.402700
       1083.2000        53.011200        34.095200
       1100.7200        53.621600        33.790200
       1118.5200        54.210400        33.487400
       1136.6100        54.782400        33.186700
       1155.0000        55.342500        32.888300
       1173.6800        55.895100        32.592100
       1192.6600        56.445400        32.298100
       1211.9500        57.002000        32.006200
       1231.5500        57.588300        31.716200
       1251.4700        58.202400        31.363300
       1271.7200        58.821700        30.943000
       1292.2900        59.357500        30.441500
       1313.1900        59.826900        29.947400
       1334.4300        60.254900        29.461000
       1356.0100        60.650400        28.981700
       1377.9400        61.018300        28.509400
       1400.2300        61.362600        28.044400
       1422.8800        61.685900        27.586400
       1445.8900        61.990300        27.134800
       1469.2800        62.278400        26.689100
       1493.0400        62.552200        26.248700
       1517.1900        62.808000        25.806600
       1541.7300        63.044900        25.370600
       1566.6700        63.265000        24.941700
       1592.0100        63.470100        24.519100
       1617.7600        63.661300        24.103200
       1643.9200        63.839500        23.693600
       1670.5100        64.005300        23.290200
       1697.5300        64.159400        22.893300
       1724.9900        64.310400        22.502900
       1752.8900        64.449100        22.104000
       1781.2400        64.569600        21.706800
       1810.0500        64.672700        21.312700
       1839.3200        64.758500        20.925000
       1869.0700        64.829800        20.544000
       1899.3000        64.887000        20.169600
       1930.0200        64.930700        19.801700
       1961.2400        64.961400        19.440000
       1992.9600        64.975200        19.083700
       2025.2000        64.988500        18.744200
       2057.9500        64.990200        18.390400
       2091.2400        64.970400        18.040900
       2125.0600        64.933000        17.695200
       2159.4300        64.877800        17.354300
       2194.3600        64.804800        17.017600
       2229.8500        64.712200        16.684800
       2265.9200        64.598900        16.356500
       2302.5700        64.464200        16.033200
       2339.8100        64.306600        15.714000
       2377.6600        64.123600        15.398600
       2416.1100        63.912300        15.087300
       2455.1900        63.670500        14.780700
       2494.9000        63.394100        14.477700
       2535.2600        63.078300        14.179400
       2576.2600        62.718400        13.885700
       2617.9300        62.307000        13.596000
       2660.2700        61.835000        13.310700
       2703.3000        61.290200        13.029400
       2747.0300        60.656100        12.752300
       2791.4600        59.909300        12.479400
       2836.6100        59.015700        12.210800
       2882.4900        57.921800        11.946100
       2929.1100        56.536200        11.685400
       2976.4800        54.682700        11.428800
       3024.6300        51.938300        11.176300
       3073.5500        46.627600        10.927700
       3104.8000        16.196000        10.773800
       3105.0000        16.197400        27.276200
       3123.2600        43.384300        27.016000
       3173.7800        49.024200        26.316700
       3225.1100        48.240500        25.636800
       3248.3000        29.978400        25.338900
       3248.5000        29.989000        36.523000
       3277.2700        51.353600        36.038100
       3330.2800        56.729000        35.172200
       3384.1500        59.792200        34.328400
       3438.8800        61.981000        33.505000
       3494.5000        63.654900        32.704000
       3551.0200        64.958000        31.922800
       3608.4600        65.945700        31.161500
       3666.8200        66.603100        30.419500
       3726.1300        66.750000        29.694600
       3786.4000        64.089500        28.989500
       3791.7000        58.348400        28.928800
       3791.9000        58.357900        33.549000
       3847.6400        68.461400        32.815900
       3909.8700        70.345500        32.028300
       3973.1100        71.656000        31.259200
       4037.3800        72.695800        30.511400
       4102.6800        73.559000        29.781000
       4169.0300        74.284700        29.068900
       4236.4600        74.892700        28.375400
       4304.9800        75.382300        27.696700
       4374.6200        75.727200        27.037200
       4445.3700        76.008300        26.391900
       4489.4000        73.439700        26.003200
       4489.6000        73.447200        27.568400
       4517.2700        76.020200        27.322300
       4590.3300        77.047500        26.690100
       4664.5800        77.639800        26.075100
       4740.0300        78.012800        25.474500
       4816.6900        77.592700        24.887400
       4821.9000        76.249200        24.848300
       4822.1000        76.250600        25.937300
       4894.6000        78.979000        25.385200
       4973.7700        79.660300        24.804700
       5054.2100        80.194600        24.234400
       5135.9600        80.651600        23.675200
       5219.0300        81.055600        23.126800
       5303.4400        81.418300        22.589400
       5389.2200        81.746500        22.062300
       5476.3900        82.045100        21.546000
       5564.9700        82.317800        21.040400
       5654.9800        82.567400        20.545300
       5746.4400        82.795900        20.060100
       5839.3900        83.005100        19.585100
       5933.8300        83.196600        19.120200
       6029.8100        83.372000        18.665200
       6127.3300        83.532000        18.219800
       6226.4400        83.678100        17.784200
       6327.1500        83.811000        17.358000
       6429.4800        83.931700        16.941200
       6533.4800        84.040900        16.533400
       6639.1500        84.139300        16.134600
       6746.5400        84.227500        15.744900
       6855.6500        84.306300        15.363900
       6966.5400        84.375900        14.991300
       7079.2200        84.437100        14.627500
       7193.7200        84.490400        14.271600
       7310.0700        84.535900        13.924000
       7428.3100        84.574400        13.584700
       7548.4500        84.606400        13.252900
       7670.5400        84.631800        12.928900
       7794.6100        84.651100        12.612300
       7920.6800        84.664500        12.303100
       8048.7900        84.672300        12.001500
       8178.9800        84.675400        11.706800
       8311.2600        84.673200        11.418800
       8445.6900        84.666300        11.138200
       8582.2900        84.655200        10.863700
       8721.1100        84.639400        10.595900
       8862.1600        84.619500        10.334700
       9005.5000        84.596100        10.079800
       9151.1600        84.569100        9.8305500
       9299.1700        84.538400        9.5876900
       9449.5800        84.504700        9.3505300
       9602.4200        84.468400        9.1192900
       9757.7300        84.430100        8.8936500
       9915.5500        84.397900        8.6732900
       10075.900        84.363100        8.4386900
       10238.900        84.308100        8.2102000
       10404.500        84.247000        7.9877100
       10572.800        84.179200        7.7711000
       10743.800        84.104900        7.5602900
       10917.600        84.024400        7.3551700
       11094.200        83.937700        7.1556200
       11273.600        83.844800        6.9615400
       11455.900        83.745500        6.7728300
       11641.200        83.639500        6.5893700
       11829.500        83.526400        6.4110600
       12020.800        83.405600        6.2377900
       12215.300        83.276600        6.0694500
       12412.800        83.138300        5.9059400
       12613.600        82.989600        5.7471500
       12817.600        82.829200        5.5929900
       13025.000        82.654900        5.4433200
       13235.600        82.464400        5.2980800
       13449.700        82.254200        5.1571400
       13667.200        82.019600        5.0204000
       13888.300        81.753700        4.8877700
       14112.900        81.446400        4.7591500
       14341.200        81.081100        4.6344500
       14573.100        80.629200        4.5135500
       14808.900        80.033000        4.3963800
       15048.400        79.148000        4.2828400
       15291.800        77.373000        4.1728300
       15444.300        63.444500        4.1061800
       15444.500        63.445300        10.133300
       15539.100        76.589500        10.025400
       15790.400        79.110000        9.7473500
       16045.800        80.145400        9.4770100
       16305.400        80.767200        9.2141700
       16569.100        81.176200        8.9586300
       16837.100        81.444200        8.7101700
       17109.400        81.600300        8.4686100
       17386.100        81.651300        8.2337600
       17667.400        81.582600        8.0054200
       17953.100        81.338500        7.7834200
       18243.500        80.701100        7.5675800
       18484.200        73.242100        7.3957000
       18484.400        73.242200        10.432400
       18538.600        79.343900        10.387700
       18838.400        81.116900        10.146100
       19143.100        81.245500        9.9100600
       19236.600        78.251400        9.8394700
       19236.800        78.251900        11.301600
       19452.700        82.205700        11.114000
       19767.400        83.054400        10.849700
       20087.100        83.625500        10.590300
       20412.000        84.073200        10.335800
       20742.100        84.444700        10.086200
       21077.600        84.762600        9.8414900
       21418.500        85.039600        9.6016300
       21765.000        85.284000        9.3665800
       22117.000        85.501500        9.1363300
       22474.700        85.696300        8.9108300
       22838.200        85.871600        8.6900300
       23207.600        86.029900        8.4739000
       23583.000        86.173200        8.2623800
       23964.400        86.303100        8.0554300
       24352.000        86.421100        7.8529800
       24745.900        86.528300        7.6549900
       25146.200        86.625600        7.4613900
       25552.900        86.714100        7.2721300
       25966.200        86.794300        7.0871400
       26386.100        86.867100        6.9063500
       26812.900        86.932900        6.7297200
       27246.600        86.992500        6.5571500
       27687.300        87.046100        6.3886000
       28135.100        87.094300        6.2239800
       28590.200        87.137500        6.0632500
       29052.600        87.176000        5.9063200
       29522.500        87.210100        5.7531300
       30000.000        87.240200        5.6036100
       30100.000        87.001000        5.6117200
       30200.000        87.007300        5.5814600
       30300.000        87.013200        5.5512100
       30400.000        87.019100        5.5209500
       30600.000        87.030000        5.4625000
       30800.000        87.040300        5.4040500
       31000.000        87.049800        5.3475700
       31200.000        87.058700        5.2910900
       31350.000        87.065000        5.2499700
       31500.000        87.071000        5.2088500
       31700.000        87.078400        5.1556000
       31900.000        87.085400        5.1023500
       32100.000        87.091800        5.0508300
       32300.000        87.097700        4.9993100
       32450.000        87.101900        4.9617600
       32600.000        87.105800        4.9242100
       32800.000        87.110600        4.8755500
       33000.000        87.114800        4.8268800
       33200.000        87.118700        4.7800500
       33400.000        87.122400        4.7332300
       33800.000        87.129000        4.6424900
       34100.000        87.133200        4.5762600
       34500.000        87.138000        4.4903000
       34900.000        87.142000        4.4078000
       35100.000        87.143900        4.3665500
       35300.000        87.145300        4.3253000
       35500.000        87.146400        4.2860600
       35700.000        87.147200        4.2468200
       36030.000        87.148100        4.1820700
       36300.000        87.148300        4.1313800
       36500.000        87.148200        4.0938400
       37000.000        87.147300        4.0032300
       37500.000        87.145300        3.9157900
       38000.000        87.142800        3.8313900
       38500.000        87.139300        3.7490600
       39000.000        87.134700        3.6695300
       39500.000        87.129300        3.5926700
       40000.000        87.123200        3.5183600
       40400.000        87.117900        3.4612300
       40800.000        87.112100        3.4041000
       41100.000        87.107500        3.3633100
       41500.000        87.101200        3.3089200
       42300.000        87.087600        3.2052400
       43000.000        87.074900        3.1187300
       43800.000        87.059700        3.0242000
       44500.000        87.045800        2.9451900
       45300.000        87.029700        2.8586300
       46000.000        87.014800        2.7858700
       46500.000        87.004000        2.7356900
       47000.000        86.992900        2.6869300
       47500.000        86.981600        2.6395500
       48000.000        86.970400        2.5934800
       49000.000        86.947300        2.5051100
       49500.000        86.935700        2.4627100
       50000.000        86.924100        2.4214400
       51000.000        86.900600        2.3416800
       52000.000        86.876700        2.2660100
       53000.000        86.852600        2.1941600
       54000.000        86.828300        2.1258700
       55000.000        86.804100        2.0609000
       56000.000        86.779800        1.9987800
       56800.000        86.760200        1.9512000
       57530.000        86.742400        1.9093400
       58000.000        86.730800        1.8831300
       58500.000        86.718600        1.8558700
       59540.000        86.693100        1.8011500
       60000.000        86.681900        1.7777600
       60900.000        86.659800        1.7331600
       61400.000        86.647500        1.7091400
       61845.600        86.636600        1.6881800
       62900.000        86.610500        1.6401700
       64000.000        86.583300        1.5923500
       64700.000        86.565900        1.5630600
       65400.000        86.548500        1.5345800
       66100.000        86.531000        1.5068800
       66830.000        86.512900        1.4788400
       67400.000        86.498600        1.4575100
       68000.000        86.483500        1.4355800
       69000.000        86.458100        1.4001700
       70000.000        86.432800        1.3661300
       71000.000        86.407100        1.3332500
       72000.000        86.381200        1.3016000
       73500.000        86.341600        1.2563100
       74960.000        86.302400        1.2145700
       75500.000        86.287500        1.1996900
       76000.000        86.273800        1.1861600
       77110.000        86.242800        1.1569800
       78600.000        86.200100        1.1195700
       79300.000        86.179500        1.1026500
       79700.000        86.167600        1.0932100
       80000.000        86.158600        1.0861300
       80800.000        86.134300        1.0678200
       81500.000        86.112500        1.0518000
       82300.000        86.086900        1.0343900
       83000.000        86.064000        1.0191600
       84000.000        86.030300       0.99828100
       84500.000        86.012900       0.98817400
       85000.000        85.995200       0.97806700
       85800.000        85.966200       0.96253000
       86500.000        85.939800       0.94893500
       87300.000        85.908700       0.93411600
       88000.000        85.880300       0.92114900
       88500.000        85.859500       0.91224000
       89000.000        85.838000       0.90333100
       89500.000        85.815900       0.89469100
       90000.000        85.793000       0.88605200
       90800.000        85.755000       0.87272100
       91500.000        85.719900       0.86105700
       92300.000        85.677400       0.84831000
       93000.000        85.638000       0.83715600
       93500.000        85.608400       0.82947700
       94000.000        85.577300       0.82179900
       94500.000        85.544800       0.81434000
       95000.000        85.510500       0.80688100
       95400.000        85.481800       0.80112400
       95800.000        85.451700       0.79536700
       96200.000        85.420200       0.78961000
       96500.000        85.395400       0.78529200
       96900.000        85.360900       0.77977400
       97300.000        85.324500       0.77425700
       97700.000        85.285900       0.76873900
       98000.000        85.255300       0.76460100
       98300.000        85.223200       0.76060500
       98500.000        85.200800       0.75794000
       98800.000        85.165800       0.75394400
       99000.000        85.141400       0.75128000
       99300.000        85.102900       0.74739300
       99500.000        85.075900       0.74480100
       99800.000        85.033200       0.74091400
       100000.00        85.003000       0.73832200
