;  Atomic scattering factors for Rn.
;   
;  Concatenation of data from CXRO <http://www-cxro.lbl.gov>
;  and LLNL <http://www-phys.llnl.gov/V_Div/scattering/asf.html>
;  
;  E (eV) f1 f2
;---------------
       10.000000       -9999.0000        2.8396400
       10.161700       -9999.0000        3.2179100
       10.326100       -9999.0000        3.6465600
       10.493100       -9999.0000        4.0508300
       10.662800       -9999.0000        4.4288000
       10.835300       -9999.0000        4.8343700
       11.010600       -9999.0000        5.2444500
       11.188600       -9999.0000        5.6893200
       11.369600       -9999.0000        6.1527700
       11.553500       -9999.0000        6.6207200
       11.740400       -9999.0000        7.1242400
       11.930300       -9999.0000        7.6660600
       12.123200       -9999.0000        8.1101200
       12.319300       -9999.0000        8.5531700
       12.518600       -9999.0000        9.0204400
       12.721000       -9999.0000        9.5132200
       12.926800       -9999.0000        9.9522900
       13.135900       -9999.0000        10.296200
       13.348300       -9999.0000        10.652000
       13.564200       -9999.0000        11.020100
       13.783600       -9999.0000        11.265700
       14.006600       -9999.0000        11.513100
       14.233100       -9999.0000        11.766000
       14.463300       -9999.0000        12.024300
       14.697300       -9999.0000        12.170700
       14.935000       -9999.0000        12.315400
       15.176500       -9999.0000        12.461800
       15.422000       -9999.0000        12.572700
       15.671400       -9999.0000        12.621900
       15.924900       -9999.0000        12.671300
       16.182500       -9999.0000        12.720800
       16.444200       -9999.0000        12.659800
       16.710200       -9999.0000        12.595800
       16.980500       -9999.0000        12.532100
       17.255100       -9999.0000        12.305900
       17.534200       -9999.0000        12.048600
       17.817800       -9999.0000        11.796600
       18.106000       -9999.0000        11.601300
       18.398900       -9999.0000        11.466400
       18.696400       -9999.0000        11.333100
       18.998800       -9999.0000        11.201400
       19.306100       -9999.0000        11.038600
       19.618400       -9999.0000        10.761100
       19.935700       -9999.0000        10.490500
       20.258200       -9999.0000        10.226700
       20.585800       -9999.0000        9.9695700
       20.918800       -9999.0000        9.7666500
       21.257100       -9999.0000        9.5699500
       21.600900       -9999.0000        9.3772200
       21.950300       -9999.0000        9.1883600
       22.305300       -9999.0000        9.0033100
       22.666100       -9999.0000        8.8219900
       23.032700       -9999.0000        8.6443300
       23.405300       -9999.0000        8.4542200
       23.783800       -9999.0000        8.2670500
       24.168500       -9999.0000        8.0840100
       24.559400       -9999.0000        7.9050300
       24.956600       -9999.0000        7.6232500
       25.360300       -9999.0000        7.3012000
       25.770500       -9999.0000        6.9927700
       26.187300       -9999.0000        6.6973600
       26.610900       -9999.0000        6.4550700
       27.041300       -9999.0000        6.2616400
       27.478600       -9999.0000        6.0740000
       27.923100       -9999.0000        5.8920000
       28.374700       -9999.0000        5.7154400
       28.833700       -9999.0000        5.5285900
       29.300000        8.7151800        5.2690700
       29.773900        8.6878600        5.0217300
       30.255500        8.6474100        4.7735100
       30.744900        8.5715900        4.5215300
       31.242100        8.4707700        4.2828400
       31.747500        8.3519800        4.0567600
       32.260900        8.2176600        3.8429800
       32.782700        8.0702000        3.6409000
       33.313000        7.9098900        3.4494500
       33.851800        7.7343600        3.2680700
       34.399300        7.5479000        3.1109800
       34.955700        7.3624700        2.9641800
       35.521100        7.1739700        2.8243000
       36.095600        6.9833100        2.6910200
       36.679400        6.7971300        2.5603000
       37.272700        6.5921100        2.4045600
       37.875500        6.3607000        2.2582900
       38.488200        6.1112800        2.1209100
       39.110700        5.8470900        1.9903100
       39.743200        5.5591400        1.8589300
       40.386100        5.2412300        1.7362400
       41.039300        4.8812700        1.6424700
       41.703100        4.5219600        1.5775900
       42.377600        4.1336900        1.5297600
       43.063000        3.7506300        1.5237600
       43.759500        3.3651900        1.5177800
       44.467300        2.9572100        1.5186500
       45.186500        2.5392200        1.5388400
       45.917400        2.1020600        1.5593000
       46.660000        1.6229600        1.5898100
       47.414700        1.1210200        1.6527300
       48.181600       0.58206700        1.7252200
       48.960900     0.0020492100        1.8162800
       49.752800      -0.66532400        1.9338600
       50.557600       -1.3647000        2.1593800
       51.375300       -2.0983300        2.4112100
       52.206200       -2.9268800        2.6924100
       53.050600       -3.9507000        3.1836700
       53.908700       -4.8886000        3.9501200
       54.780600       -5.7096100        4.9271600
       55.666700       -6.1728100        5.9227300
       56.567000       -6.7730500        6.8112700
       57.482000       -7.4641300        7.8598000
       58.411700       -8.0531300        9.1875000
       59.356400       -8.4083600        10.739500
       60.316500       -8.1893900        12.292300
       61.292100       -8.0482300        13.350900
       62.283400       -7.9970400        14.500600
       63.290800       -7.9245000        15.749400
       64.314500       -7.7253800        17.105700
       65.354700       -7.2123700        18.578800
       66.411800       -6.5914200        19.556000
       67.485900       -6.1201900        20.541800
       68.577500       -5.6745100        21.577300
       69.686700       -5.2063300        22.665000
       70.813800       -4.6864700        23.807600
       71.959100       -4.0897700        25.007700
       73.123000       -3.3859800        26.268300
       74.305700       -2.5364500        27.592500
       75.507600       -1.4496900        28.983400
       76.728900       0.15243600        30.444500
       77.969900        1.9396200        30.990900
       79.231000        3.3814400        31.398600
       80.512500        4.7136900        31.809800
       81.814700        5.9955300        32.179800
       83.138000        7.2523700        32.554100
       84.482700        8.5178300        32.932800
       85.849100        9.8223000        33.316000
       87.237700        11.196800        33.703500
       88.648700        12.712300        34.095600
       90.082500        14.623600        34.339000
       91.539500        16.367600        34.074300
       93.020100        17.962200        33.811600
       94.524600        19.663500        33.551000
       96.053500        21.349100        32.809100
       97.607100        22.800500        32.014300
       99.185800        24.218800        31.159100
       100.79000        25.411600        30.140600
       102.42000        26.391100        29.232800
       104.07700        27.528100        28.448000
       105.76000        28.844400        27.195200
       107.47100        29.706700        25.724400
       109.20900        30.252800        24.333100
       110.97500        30.628500        23.017100
       112.77000        30.854600        21.772200
       114.59400        30.900500        20.661100
       116.44800        30.964300        19.710400
       118.33100        31.010900        18.803600
       120.24500        31.020700        17.938400
       122.19000        30.972900        17.113000
       124.16600        30.868800        16.412400
       126.17500        30.812700        15.787700
       128.21500        30.787900        15.186800
       130.28900        30.774200        14.608800
       132.39700        30.774500        14.052800
       134.53800        30.805700        13.517900
       136.71400        30.984500        12.931800
       138.92500        31.021200        12.150500
       141.17200        30.920400        11.416400
       143.45600        30.758300        10.726700
       145.77600        30.551500        10.078700
       148.13400        30.308800        9.4697800
       150.53000        30.034200        8.8976600
       152.96400        29.719600        8.3601000
       155.43900        29.391000        7.9073100
       157.95300        29.075000        7.4868900
       160.50700        28.764400        7.0888200
       163.10300        28.451200        6.7119000
       165.74200        28.134100        6.3550400
       168.42200        27.812500        6.0171400
       171.14600        27.487500        5.6972200
       173.91500        27.154300        5.3887000
       176.72700        26.808600        5.0968000
       179.58600        26.448500        4.8284500
       182.49100        26.088600        4.5833300
       185.44200        25.722800        4.3506500
       188.44200        25.336000        4.1302400
       191.48900        24.948400        3.9531500
       194.58700        24.564900        3.7836500
       197.73400        24.169200        3.6214200
       200.93200        23.750500        3.4918900
       204.18200        23.342000        3.3883300
       207.48500        22.927800        3.2878400
       210.84000        22.481800        3.2222800
       214.25100        22.064800        3.2004900
       217.71600        21.658100        3.1788500
       221.23700        21.231400        3.1662300
       224.81600        20.814800        3.1824200
       228.45200        20.403100        3.1986900
       232.14700        19.977000        3.2150400
       235.90200        19.517000        3.2589500
       239.71700        19.067000        3.3341600
       243.59500        18.617700        3.4111000
       247.53500        18.140100        3.4922700
       251.53800        17.651900        3.6157200
       255.60700        17.150900        3.7435200
       259.74100        16.608100        3.8758500
       263.94200        15.984200        4.0749300
       268.21100        15.396200        4.3788600
       272.54900        14.825100        4.7054600
       276.95700        14.245300        5.0564100
       281.43700        13.623400        5.4335400
       285.98900        12.982500        5.9362800
       290.61500        12.361900        6.5008500
       295.31500        11.668900        7.1191000
       300.09200        11.035200        8.0398500
       304.94500        10.735100        9.1115300
       309.87800        10.569400        9.8981000
       314.89000        10.331600        10.670000
       319.98300        10.097900        11.502100
       325.15800        9.9534700        12.369300
       330.41800        9.8234400        13.227100
       335.76200        9.7487200        14.144500
       341.19200        9.7612000        15.032200
       346.71100        9.7679400        15.900500
       352.31900        9.8034700        16.819100
       358.01700        9.9659400        17.755200
       363.80800        10.139100        18.640100
       369.69200        10.336600        19.569000
       375.67200        10.660800        20.544200
       381.74800        11.067600        21.353500
       387.92200        11.443400        22.132100
       394.19700        11.808700        22.939200
       400.57300        12.219200        23.775600
       407.05200        12.785700        24.642600
       413.63500        13.407600        25.303700
       420.32600        13.953000        25.913600
       427.12400        14.482100        26.538200
       434.03200        15.035600        27.177900
       441.05200        15.699400        27.791400
       448.18600        16.304500        28.255000
       455.43500        16.858800        28.726400
       462.80200        17.393000        29.205600
       470.28700        17.919800        29.692800
       477.89400        18.439700        30.188200
       485.62300        18.960100        30.708300
       493.47800        19.507400        31.252900
       501.45900        20.084500        31.807200
       509.57000        20.694600        32.371300
       517.81200        21.345300        32.945400
       526.18700        22.098000        33.529800
       534.69800        22.883500        33.994900
       543.34600        23.643400        34.440200
       552.13400        24.414800        34.891400
       561.06500        25.220500        35.348400
       570.13900        26.089100        35.811500
       579.36100        27.130600        36.176800
       588.73200        28.099200        36.353400
       598.25400        28.973500        36.530900
       607.93000        29.838300        36.709200
       617.76300        30.710800        36.888500
       627.75500        31.606800        37.068600
       637.90800        32.657500        37.241100
       648.22600        33.742200        37.153200
       658.71100        34.647500        36.929100
       669.36500        35.432400        36.709400
       680.19100        36.139200        36.536800
       691.19300        36.834000        36.399100
       702.37200        37.561400        36.259400
       713.73300        38.279600        36.037800
       725.27700        38.904700        35.761000
       737.00800        39.448600        35.486600
       748.92800        39.912000        35.214200
       761.04200        40.255700        34.952800
       773.35100        40.406400        34.790500
       785.85900        40.466900        34.968300
       798.57000        40.807000        35.432700
       811.48600        41.372000        35.903000
       824.61100        42.122700        36.379800
       837.94900        43.148600        36.863200
       851.50200        44.417000        37.029200
       865.27400        45.774600        36.837500
       879.26900        46.838000        36.329900
       893.49100        47.703800        35.829000
       907.94300        48.456900        35.335000
       922.62800        49.114400        34.847900
       937.55100        49.715200        34.412300
       952.71500        50.281100        33.993500
       968.12400        50.826300        33.589500
       983.78300        51.349900        33.190600
       999.69500        51.853300        32.792900
       1015.8600        52.340700        32.396200
       1032.2900        52.773800        31.973900
       1048.9900        53.157500        31.598100
       1065.9600        53.551200        31.271700
       1083.2000        53.952300        30.948300
       1100.7200        54.351500        30.627800
       1118.5200        54.746600        30.310300
       1136.6100        55.137300        29.995400
       1155.0000        55.524300        29.683500
       1173.6800        55.908700        29.374500
       1192.6600        56.292600        29.068000
       1211.9500        56.680100        28.764200
       1231.5500        57.083700        28.463000
       1251.4700        57.502000        28.127900
       1271.7200        57.922100        27.756400
       1292.2900        58.294100        27.340600
       1313.1900        58.627300        26.930200
       1334.4300        58.935700        26.525700
       1356.0100        59.224700        26.126800
       1377.9400        59.496900        25.732900
       1400.2300        59.754600        25.344500
       1422.8800        60.000300        24.961800
       1445.8900        60.236400        24.583800
       1469.2800        60.467100        24.207100
       1493.0400        60.694500        23.829700
       1517.1900        60.903400        23.431000
       1541.7300        61.088600        23.035000
       1566.6700        61.253600        22.645300
       1592.0100        61.402900        22.261500
       1617.7600        61.538100        21.883600
       1643.9200        61.660000        21.511400
       1670.5100        61.769600        21.145100
       1697.5300        61.867600        20.784800
       1724.9900        61.962400        20.430000
       1752.8900        62.044600        20.065800
       1781.2400        62.107600        19.702800
       1810.0500        62.152400        19.342300
       1839.3200        62.179100        18.987800
       1869.0700        62.190100        18.639500
       1899.3000        62.185500        18.297100
       1930.0200        62.165500        17.960700
       1961.2400        62.130300        17.630100
       1992.9600        62.076300        17.304900
       2025.2000        62.018000        16.994300
       2057.9500        61.944500        16.670400
       2091.2400        61.845400        16.349900
       2125.0600        61.724400        16.033200
       2159.4300        61.579400        15.719700
       2194.3600        61.409900        15.410800
       2229.8500        61.212500        15.104500
       2265.9200        60.985000        14.803200
       2302.5700        60.725100        14.505200
       2339.8100        60.427400        14.210500
       2377.6600        60.087100        13.920300
       2416.1100        59.698400        13.634000
       2455.1900        59.253000        13.351100
       2494.9000        58.740000        13.072100
       2535.2600        58.145400        12.796900
       2576.2600        57.449700        12.525600
       2617.9300        56.624700        12.258100
       2660.2700        55.628500        11.994600
       2703.3000        54.393000        11.734500
       2747.0300        52.796900        11.478200
       2791.4600        50.588300        11.225800
       2836.6100        47.066200        10.977200
       2882.4900        37.361500        10.732200
       2892.3000        12.701800        10.681100
       2892.5000        12.702700        27.480000
       2929.1100        43.598200        26.945800
       2976.4800        46.049400        26.279400
       3021.4000        26.888800        25.672300
       3021.6000        26.910500        37.203000
       3024.6300        39.207300        37.145900
       3073.5500        51.417500        36.240600
       3123.2600        55.370600        35.357800
       3173.7800        57.995900        34.498500
       3225.1100        59.947100        33.660200
       3277.2700        61.449700        32.844100
       3330.2800        62.600800        32.049800
       3384.1500        63.421600        31.275100
       3438.8800        63.841800        30.520000
       3494.5000        63.680800        29.783600
       3537.9000        53.555800        29.229400
       3538.1000        53.570100        35.108000
       3551.0200        62.380900        34.892800
       3608.4600        66.448700        33.961200
       3666.8200        68.365500        33.055600
       3726.1300        69.745900        32.173900
       3786.4000        70.836900        31.317400
       3847.6400        71.729200        30.485400
       3909.8700        72.464000        29.676800
       3973.1100        73.055700        28.889900
       4037.3800        73.494600        28.124100
       4102.6800        74.649000        27.379300
       4158.9000        71.689300        26.762800
       4159.1000        71.697900        28.278800
       4169.0300        73.384300        28.178300
       4236.4600        74.694200        27.512300
       4304.9800        75.339000        26.860900
       4374.6200        75.773000        26.224500
       4445.3700        75.917400        25.604500
       4481.9000        74.042400        25.294000
       4482.1000        74.043700        26.422200
       4517.2700        76.377400        26.130100
       4590.3300        77.211800        25.540600
       4664.5800        77.795200        24.962700
       4740.0300        78.283200        24.395100
       4816.6900        78.710800        23.838100
       4894.6000        79.094000        23.292400
       4973.7700        79.441500        22.756800
       5054.2100        79.758000        22.231700
       5135.9600        80.047500        21.717000
       5219.0300        80.313200        21.212600
       5303.4400        80.557100        20.718000
       5389.2200        80.781000        20.233600
       5476.3900        80.986700        19.759300
       5564.9700        81.175700        19.294500
       5654.9800        81.348900        18.839500
       5746.4400        81.507600        18.394200
       5839.3900        81.652600        17.958000
       5933.8300        81.784800        17.531300
       6029.8100        81.905200        17.113800
       6127.3300        82.014200        16.705200
       6226.4400        82.112600        16.305600
       6327.1500        82.201100        15.914700
       6429.4800        82.280200        15.532500
       6533.4800        82.350500        15.158800
       6639.1500        82.412300        14.793200
       6746.5400        82.466100        14.436100
       6855.6500        82.512500        14.086900
       6966.5400        82.551800        13.745700
       7079.2200        82.584300        13.412200
       7193.7200        82.610300        13.086200
       7310.0700        82.630100        12.767800
       7428.3100        82.644200        12.457000
       7548.4500        82.652700        12.153100
       7670.5400        82.655900        11.856400
       7794.6100        82.654000        11.566700
       7920.6800        82.647400        11.283600
       8048.7900        82.636000        11.007300
       8178.9800        82.620200        10.737400
       8311.2600        82.600000        10.473900
       8445.6900        82.575700        10.216800
       8582.2900        82.547400        9.9657400
       8721.1100        82.515200        9.7206000
       8862.1600        82.479300        9.4813500
       9005.5000        82.439700        9.2477300
       9151.1600        82.396400        9.0198900
       9299.1700        82.349800        8.7974400
       9449.5800        82.299800        8.5804100
       9602.4200        82.247000        8.3687600
       9757.7300        82.191800        8.1619900
       9915.5500        82.136900        7.9605100
       10075.900        82.079300        7.7507400
       10238.900        82.008800        7.5463400
       10404.500        81.931500        7.3472100
       10572.800        81.847500        7.1532400
       10743.800        81.756800        6.9643400
       10917.600        81.659500        6.7804000
       11094.200        81.555200        6.6013300
       11273.600        81.443500        6.4270300
       11455.900        81.323800        6.2573900
       11641.200        81.195300        6.0923200
       11829.500        81.057000        5.9317200
       12020.800        80.907800        5.7754900
       12215.300        80.745800        5.6235300
       12412.800        80.569000        5.4757500
       12613.600        80.374500        5.3320600
       12817.600        80.158300        5.1923600
       13025.000        79.915000        5.0565500
       13235.600        79.636600        4.9245600
       13449.700        79.310700        4.7962800
       13667.200        78.916800        4.6716300
       13888.300        78.417400        4.5505200
       14112.900        77.731200        4.4328700
       14341.200        76.619800        4.3185900
       14573.100        73.278300        4.2076000
       14619.300        61.645600        4.1860700
       14619.500        61.646300        10.158400
       14808.900        76.069500        9.9345200
       15048.400        77.621900        9.6623100
       15291.800        78.425400        9.3975700
       15539.100        78.929600        9.1401000
       15790.400        79.257600        8.8896700
       16045.800        79.456100        8.6461200
       16305.400        79.539600        8.4092300
       16569.100        79.497700        8.1788500
       16837.100        79.278300        7.9547800
       17109.400        78.681400        7.7368600
       17337.000        71.466300        7.5618700
       17337.200        71.467000        10.604900
       17386.100        77.301800        10.560500
       17667.400        79.126200        10.311400
       17953.100        79.337600        10.068100
       18048.900        76.597700        9.9886300
       18049.100        76.598100        11.335200
       18243.500        80.202700        11.162800
       18538.600        81.029600        10.909500
       18838.400        81.589900        10.660000
       19143.100        82.032400        10.414400
       19452.700        82.402000        10.172700
       19767.400        82.720000        9.9350000
       20087.100        82.998400        9.7013100
       20412.000        83.245300        9.4716500
       20742.100        83.466100        9.2460800
       21077.600        83.664600        9.0245700
       21418.500        83.844000        8.8071700
       21765.000        84.006700        8.5938500
       22117.000        84.154500        8.3846200
       22474.700        84.289100        8.1794600
       22838.200        84.411700        7.9783600
       23207.600        84.523500        7.7813000
       23583.000        84.625500        7.5882500
       23964.400        84.718500        7.3991900
       24352.000        84.803300        7.2140700
       24745.900        84.880400        7.0328800
       25146.200        84.950500        6.8555600
       25552.900        85.014200        6.6820800
       25966.200        85.071800        6.5123900
       26386.100        85.123900        6.3464400
       26812.900        85.170700        6.1842000
       27246.600        85.212700        6.0256000
       27687.300        85.250200        5.8706100
       28135.100        85.283600        5.7191500
       28590.200        85.312900        5.5711900
       29052.600        85.338700        5.4266700
       29522.500        85.360900        5.2855300
       30000.000        85.380000        5.1477200
       30200.000        85.177000        5.0908900
       30400.000        85.183300        5.0357800
       30600.000        85.189100        4.9825500
       30800.000        85.194400        4.9293100
       31000.000        85.199400        4.8778600
       31200.000        85.203900        4.8264200
       31500.000        85.210000        4.7515000
       31700.000        85.213600        4.7029900
       31900.000        85.216900        4.6544900
       32100.000        85.219800        4.6075600
       32300.000        85.222500        4.5606300
       32600.000        85.225900        4.4922200
       33000.000        85.229800        4.4035500
       33200.000        85.231400        4.3602100
       33400.000        85.232600        4.3168800
       33600.000        85.233400        4.2749000
       33800.000        85.234000        4.2329200
       34100.000        85.234400        4.1716600
       34500.000        85.234300        4.0921600
       34900.000        85.233400        4.0159500
       35300.000        85.232100        3.9397300
       35700.000        85.229500        3.8673400
       36030.000        85.226800        3.8076100
       36300.000        85.224300        3.7608800
       36500.000        85.222200        3.7262600
       37000.000        85.216400        3.6427300
       37500.000        85.209800        3.5621600
       38000.000        85.202500        3.4844000
       38500.000        85.194600        3.4092600
       39000.000        85.186100        3.3366900
       39500.000        85.177100        3.2665600
       40000.000        85.168000        3.1987500
       40800.000        85.152300        3.0941000
       41500.000        85.137600        3.0069300
       42300.000        85.120000        2.9120200
       43000.000        85.104000        2.8328300
       43800.000        85.085300        2.7464600
       44500.000        85.068700        2.6742700
       45300.000        85.049600        2.5952000
       46000.000        85.032400        2.5287300
       46500.000        85.020000        2.4829000
       47000.000        85.007400        2.4383700
       47500.000        84.994700        2.3951000
       48000.000        84.982000        2.3530300
       49000.000        84.956400        2.2723500
       49500.000        84.943500        2.2336500
       50000.000        84.930700        2.1959900
       51000.000        84.904800        2.1231800
       52000.000        84.878900        2.0541200
       53000.000        84.852800        1.9885700
       54000.000        84.826600        1.9262700
       55000.000        84.800400        1.8670200
       56000.000        84.774200        1.8103600
       56800.000        84.753300        1.7669700
       57530.000        84.734200        1.7287900
       57800.000        84.727100        1.7150100
       58000.000        84.721800        1.7049000
       58456.700        84.709800        1.6821800
       59540.000        84.681300        1.6301800
       59800.000        84.674500        1.6180700
       60000.000        84.669200        1.6088600
       60800.000        84.648100        1.5726600
       61500.000        84.629700        1.5420300
       62300.000        84.608400        1.5081700
       63000.000        84.589800        1.4794900
       64000.000        84.563000        1.4400000
       65000.000        84.536200        1.4021500
       65900.000        84.511800        1.3692300
       66830.000        84.486600        1.3364800
       67400.000        84.470800        1.3170100
       68000.000        84.454300        1.2970000
       69000.000        84.426300        1.2647000
       70000.000        84.398000        1.2336400
       71000.000        84.369300        1.2036900
       72000.000        84.340000        1.1748700
       73500.000        84.295000        1.1336300
       74960.000        84.249800        1.0956400
       75500.000        84.232600        1.0821000
       76000.000        84.216500        1.0697900
       77110.000        84.179800        1.0432500
       77900.000        84.153000        1.0252000
       78600.000        84.128600        1.0092100
       79300.000        84.103600       0.99382700
       79700.000        84.089000       0.98524400
       80000.000        84.077900       0.97880600
       80800.000        84.047600       0.96217600
       81500.000        84.020100       0.94762500
       82300.000        83.987500       0.93181400
       83000.000        83.957900       0.91798000
       83500.000        83.936100       0.90849900
       84000.000        83.913600       0.89901800
       84500.000        83.890400       0.88984200
       85000.000        83.866400       0.88066600
       85800.000        83.826400       0.86656300
       86500.000        83.789400       0.85422300
       87300.000        83.744600       0.84077500
       88000.000        83.702900       0.82900800
       88500.000        83.671400       0.82092500
       89000.000        83.638400       0.81284200
       89500.000        83.603700       0.80500400
       90000.000        83.567100       0.79716700
       90500.000        83.528300       0.78955900
       91000.000        83.487000       0.78195200
       91500.000        83.443000       0.77457000
       91800.000        83.415000       0.77014100
       92000.000        83.395700       0.76718800
       92300.000        83.365600       0.76288900
       92500.000        83.344800       0.76002300
       92800.000        83.312200       0.75572400
       93000.000        83.289500       0.75285800
       93300.000        83.253900       0.74868400
       93500.000        83.229000       0.74590100
       93800.000        83.189800       0.74172800
       94000.000        83.162300       0.73894500
       94300.000        83.118800       0.73489100
       94500.000        83.088000       0.73218900
       94800.000        83.039000       0.72813500
       95000.000        83.004200       0.72543300
       95300.000        82.948200       0.72149500
       95500.000        82.908000       0.71886900
       95800.000        82.842800       0.71493100
       95900.000        82.819600       0.71361800
       96000.000        82.795500       0.71230500
       96200.000        82.744600       0.70976800
       96400.000        82.689500       0.70723000
       96550.000        82.645100       0.70532700
       96700.000        82.597400       0.70342500
       96800.000        82.563700       0.70215600
       96900.000        82.528300       0.70088700
       97000.000        82.490900       0.69961900
       97100.000        82.451300       0.69835000
       97170.000        82.422200       0.69746200
       97250.000        82.387400       0.69644700
       97330.000        82.350700       0.69543200
       97400.000        82.316900       0.69454400
       97500.000        82.265600       0.69332500
       97600.000        82.210300       0.69210700
       97700.000        82.150100       0.69088800
       97800.000        82.084400       0.68966900
       97880.000        82.027000       0.68869500
       97950.000        81.972700       0.68784200
       98020.000        81.913900       0.68698900
       98060.000        81.878000       0.68650100
       98100.000        81.840200       0.68601400
       98150.000        81.789900       0.68540400
       98200.000        81.735900       0.68479500
       98250.000        81.677500       0.68418600
       98300.000        81.614000       0.68357600
       98330.000        81.573000       0.68321100
       98350.000        81.544400       0.68296700
       98380.000        81.499200       0.68260100
       98400.000        81.467400       0.68235800
       98420.000        81.434200       0.68211400
       98450.000        81.381300       0.68174800
       98470.000        81.343800       0.68150500
       98500.000        81.283800       0.68113900
       98520.000        81.240800       0.68089500
       98550.000        81.171300       0.68053000
       98570.000        81.121000       0.68028600
       98585.000        81.080900       0.68010300
       98600.000        81.038600       0.67992000
       98615.000        80.993600       0.67973800
       98630.000        80.945800       0.67955500
       98640.000        80.912100       0.67943300
       98650.000        80.876800       0.67931100
       98665.000        80.820500       0.67912800
       98680.000        80.759600       0.67894600
       98690.000        80.716100       0.67882400
       98700.000        80.669800       0.67870200
       98710.000        80.620500       0.67858000
       98720.000        80.567800       0.67845800
       98730.000        80.511000       0.67833600
       98740.000        80.449600       0.67821400
       98750.000        80.382700       0.67809300
       98760.000        80.309300       0.67797100
       98770.000        80.227800       0.67784900
       98775.000        80.183600       0.67778800
       98780.000        80.136500       0.67772700
       98785.000        80.086400       0.67766600
       98790.000        80.032600       0.67760500
       98795.000        79.974700       0.67754400
       98800.000        79.912100       0.67748300
       98805.000        79.843500       0.67742200
       98810.000        79.768300       0.67736100
       98815.000        79.684700       0.67730000
       98818.000        79.629500       0.67726400
       98820.000        79.590500       0.67724000
       98823.000        79.527700       0.67720300
       98825.000        79.482700       0.67717900
       98828.000        79.409800       0.67714200
       98830.000        79.357000       0.67711800
       98833.000        79.269800       0.67708100
       98835.000        79.205500       0.67705700
       98838.000        79.097200       0.67702000
       98840.000        79.015200       0.67699600
       98842.000        78.922400       0.67697100
       98844.000        78.816400       0.67694700
       98845.000        78.756900       0.67693500
       98846.000        78.691600       0.67692300
       98847.000        78.620500       0.67691000
       98848.000        78.540700       0.67689800
       98849.000        78.451700       0.67688600
       98850.000        78.348200       0.67687400
       98851.000        78.227800       0.67686200
       98852.000        78.079600       0.67685000
       98852.800        77.933300       0.67684000
       98853.500        77.771100       0.67683100
       98855.000        77.188400       0.67681300
       98855.000        77.184100       0.67681300
       98855.100        77.214500       0.81355300
       98855.100        77.201100       0.81355300
       98855.300        77.252100        1.0870300
       98855.500        77.290800        1.3605100
       98856.000        77.382200        2.0442100
       98857.000        77.542100        3.4116100
       98859.000        77.760000        1.2654700
       98860.500        77.421700        2.1176700
       98862.000        77.596700        2.7911100
       98863.000        77.895000        2.8161100
       98864.000        78.107400        2.8411200
       98865.000        78.215000        2.8665600
       98866.000        78.307300        2.8920100
       98867.000        78.387700        2.9176100
       98868.000        78.466800        2.9438200
       98869.000        78.538700        2.9698700
       98870.000        78.607500        2.9822500
       98871.000        78.671600        2.9944300
       98872.000        78.728600        3.0068500
       98873.000        78.781700        3.0193000
       98874.000        78.832800        3.0317400
       98875.000        78.882200        3.0441200
       98876.000        78.932200        3.0566900
       98877.000        78.978600        3.0621200
       98878.000        79.024200        3.0676500
       98879.000        79.065100        3.0731500
       98880.000        79.104900        3.0786400
       98882.000        79.181600        3.0896700
       98884.000        79.254700        3.0960800
       98886.000        79.321800        3.0978700
       98888.000        79.383000        3.0996800
       98890.000        79.441200        3.1014700
       98892.000        79.496100        3.0984600
       98894.000        79.545500        3.0954700
       98896.000        79.591400        3.0924800
       98898.000        79.634800        3.0894900
       98900.000        79.675400        3.0854800
       98902.000        79.713300        3.0814700
       98905.000        79.765100        3.0754600
       98909.000        79.827600        3.0694200
       98913.000        79.883200        3.0633900
       98917.000        79.933800        3.0605200
       98920.000        79.968800        3.0583600
       98922.000        79.991000        3.0583500
       98924.000        80.013000        3.0583400
       98925.000        80.023700        3.0583400
       98926.000        80.034400        3.0583300
       98927.000        80.044700        3.0583200
       98928.000        80.001600        3.0583200
       98929.000        80.064900        3.0587700
       98930.000        80.074900        3.0592200
       98931.000        80.084800        3.0596700
       98932.000        80.094800        3.0601300
       98933.500        80.109300        3.0608000
       98935.000        80.123900        3.0614800
       98939.000        80.161400        3.0638000
       98943.000        80.198000        3.0661100
       98950.000        80.259800        3.0701700
       98958.000        80.326400        3.0720400
       98965.000        80.381200        3.0736700
       98972.000        80.432800        3.0724800
       98980.000        80.486900        3.0711200
       98987.000        80.531100        3.0690000
       98995.000        80.577400        3.0665800
       99002.000        80.615200        3.0652500
       99010.000        80.655700        3.0637300
       99025.000        80.726200        3.0634700
       99040.000        80.792100        3.0648300
       99055.000        80.853700        3.0645500
       99070.000        80.910600        3.0642600
       99085.000        80.963700        3.0639800
       99100.000        81.013600        3.0636900
       99115.000        81.060500        3.0631000
       99130.000        81.104700        3.0625100
       99150.000        81.160000        3.0617200
       99170.000        81.211700        3.0609300
       99190.000        81.260200        3.0601400
       99210.000        81.306000        3.0593600
       99230.000        81.349400        3.0585700
       99250.000        81.390600        3.0577800
       99270.000        81.429900        3.0566200
       99290.000        81.467100        3.0554700
       99330.000        81.536600        3.0531500
       99360.000        81.584800        3.0514100
       99400.000        81.644600        3.0491000
       99440.000        81.700100        3.0474700
       99470.000        81.739600        3.0462600
       99510.000        81.789300        3.0446300
       99550.000        81.836300        3.0430100
       99590.000        81.880800        3.0413800
       99630.000        81.923100        3.0397500
       99670.000        81.963400        3.0381300
       99700.000        81.992700        3.0369100
       99780.000        82.065600        3.0321300
       99850.000        82.123800        3.0279500
       99920.000        82.177800        3.0240200
       99960.000        82.207100        3.0217800
       99980.000        82.221300        3.0206500
       99990.000        82.228200        3.0200900
       100000.00        82.235100        3.0195300
