;  Atomic scattering factors for Th.
;   
;  Concatenation of data from CXRO <http://www-cxro.lbl.gov>
;  and LLNL <http://www-phys.llnl.gov/V_Div/scattering/asf.html>
;  
;  E (eV) f1 f2
;---------------
       10.000000       -9999.0000        3.1476900
       10.161700       -9999.0000        3.1007000
       10.326100       -9999.0000        3.0544200
       10.493100       -9999.0000        3.0088300
       10.662800       -9999.0000        2.9639200
       10.835300       -9999.0000        2.9196800
       11.010600       -9999.0000        2.8761100
       11.188600       -9999.0000        2.8331800
       11.369600       -9999.0000        2.7908900
       11.553500       -9999.0000        2.7402400
       11.740400       -9999.0000        2.6620100
       11.930300       -9999.0000        2.5860000
       12.123200       -9999.0000        2.5121700
       12.319300       -9999.0000        2.4404400
       12.518600       -9999.0000        2.3745700
       12.721000       -9999.0000        2.3261000
       12.926800       -9999.0000        2.2786300
       13.135900       -9999.0000        2.2321200
       13.348300       -9999.0000        2.1865600
       13.564200       -9999.0000        2.1335800
       13.783600       -9999.0000        2.0814200
       14.006600       -9999.0000        2.0305300
       14.233100       -9999.0000        1.9758800
       14.463300       -9999.0000        1.9100300
       14.697300       -9999.0000        1.8463700
       14.935000       -9999.0000        1.7848400
       15.176500       -9999.0000        1.7440400
       15.422000       -9999.0000        1.7096500
       15.671400       -9999.0000        1.6759300
       15.924900       -9999.0000        1.6889900
       16.182500       -9999.0000        1.7081900
       16.444200       -9999.0000        1.7279700
       16.710200       -9999.0000        1.7831800
       16.980500       -9999.0000        1.8422000
       17.255100       -9999.0000        1.9252700
       17.534200       -9999.0000        2.0241300
       17.817800       -9999.0000        2.1453200
       18.106000       -9999.0000        2.2737700
       18.398900       -9999.0000        2.5647500
       18.696400       -9999.0000        3.0503000
       18.998800       -9999.0000        3.7144800
       19.306100       -9999.0000        4.5580300
       19.618400       -9999.0000        5.5931400
       19.935700       -9999.0000        6.6044000
       20.258200       -9999.0000        7.2892000
       20.585800       -9999.0000        8.0253400
       20.918800       -9999.0000        8.4164500
       21.257100       -9999.0000        8.8266300
       21.600900       -9999.0000        9.2568000
       21.950300       -9999.0000        9.7079400
       22.305300       -9999.0000        10.037600
       22.666100       -9999.0000        10.293400
       23.032700       -9999.0000        10.555600
       23.405300       -9999.0000        10.824600
       23.783800       -9999.0000        11.100400
       24.168500       -9999.0000        11.325000
       24.559400       -9999.0000        11.548000
       24.956600       -9999.0000        11.775400
       25.360300       -9999.0000        12.007300
       25.770500       -9999.0000        12.243700
       26.187300       -9999.0000        12.344700
       26.610900       -9999.0000        12.402200
       27.041300       -9999.0000        12.459900
       27.478600       -9999.0000        12.517900
       27.923100       -9999.0000        12.576200
       28.374700       -9999.0000        12.634800
       28.833700       -9999.0000        12.673200
       29.300000        13.213200        12.670900
       29.773900        13.585400        12.668500
       30.255500        13.953200        12.666200
       30.744900        14.323500        12.663800
       31.242100        14.702800        12.661500
       31.747500        15.099700        12.659100
       32.260900        15.531300        12.656800
       32.782700        16.056700        12.654400
       33.313000        16.621000        12.397300
       33.851800        17.037200        12.103000
       34.399300        17.379000        11.815600
       34.955700        17.680800        11.535100
       35.521100        17.953000        11.261300
       36.095600        18.205400        10.993900
       36.679400        18.450800        10.732900
       37.272700        18.677200        10.436300
       37.875500        18.866000        10.144000
       38.488200        19.031700        9.8598600
       39.110700        19.181200        9.5837200
       39.743200        19.325100        9.3153100
       40.386100        19.483700        9.0459700
       41.039300        19.608100        8.7126600
       41.703100        19.683600        8.3916300
       42.377600        19.729400        8.0824300
       43.063000        19.751800        7.7846200
       43.759500        19.754300        7.4977900
       44.467300        19.738800        7.2215200
       45.186500        19.706800        6.9554400
       45.917400        19.658900        6.6991500
       46.660000        19.593100        6.4523200
       47.414700        19.515200        6.2268000
       48.181600        19.431100        6.0098300
       48.960900        19.338600        5.8004300
       49.752800        19.236300        5.5983100
       50.557600        19.123800        5.4032500
       51.375300        19.000700        5.2149800
       52.206200        18.866400        5.0332700
       53.050600        18.719900        4.8578900
       53.908700        18.559600        4.6886200
       54.780600        18.379400        4.5252500
       55.666700        18.160900        4.3853100
       56.567000        17.958800        4.2902200
       57.482000        17.768400        4.1971800
       58.411700        17.577300        4.1061600
       59.356400        17.382000        4.0171200
       60.316500        17.180200        3.9300000
       61.292100        16.969900        3.8447800
       62.283400        16.749600        3.7614100
       63.290800        16.517500        3.6798400
       64.314500        16.271800        3.6000400
       65.354700        16.010400        3.5219700
       66.411800        15.729700        3.4469800
       67.485900        15.432400        3.3784200
       68.577500        15.116200        3.3112300
       69.686700        14.777600        3.2453700
       70.813800        14.412900        3.1808300
       71.959100        14.018100        3.1175600
       73.123000        13.588800        3.0555600
       74.305700        13.119300        2.9947900
       75.507600        12.602900        2.9350600
       76.728900        12.030400        2.8762000
       77.969900        11.390200        2.8185100
       79.231000        10.665000        2.7619900
       80.512500        9.8393800        2.7177400
       81.814700        8.9000300        2.6739400
       83.138000        7.7532000        2.5953500
       84.482700        6.3457800        2.5996700
       85.849100        4.4998800        2.6464600
       87.237700        1.7315200        3.0561500
       88.648700       -1.7176200        5.1478000
       90.082500       -4.4599600        9.8173200
       91.539500       -1.3448600        18.722200
       93.020100        7.0396700        11.952200
       94.524600        2.6597500        4.8982200
       96.053500       -4.9962900        4.8325700
       97.607100       -13.759700        7.7027200
       99.185800       -22.836100        14.742700
       100.79000       -31.072200        28.217600
       102.42000       -29.843900        54.007500
       104.07700       -10.077200        67.787600
       105.76000        6.2217300        71.266700
       107.47100        22.156900        70.820600
       109.20900        36.020100        61.680400
       110.97500        42.318700        51.030000
       112.77000        43.111500        42.218400
       114.59400        42.582900        37.758900
       116.44800        42.635300        34.154900
       118.33100        42.232100        31.220400
       120.24500        42.228100        29.142400
       122.19000        42.377200        27.202700
       124.16600        42.563300        25.392200
       126.17500        42.830100        23.669200
       128.21500        42.910900        21.741900
       130.28900        42.759600        19.971600
       132.39700        42.405200        18.345400
       134.53800        41.728300        16.975300
       136.71400        41.255900        16.164400
       138.92500        40.969100        15.392300
       141.17200        40.821400        14.657000
       143.45600        40.747300        13.832300
       145.77600        40.598600        12.987000
       148.13400        40.421000        12.193400
       150.53000        40.240900        11.448300
       152.96400        40.086400        10.748700
       155.43900        40.124600        9.9850500
       157.95300        39.942000        8.9940800
       160.50700        39.566400        8.1014600
       163.10300        39.108700        7.2974000
       165.74200        38.592800        6.5946600
       168.42200        38.056400        5.9735200
       171.14600        37.492200        5.4109100
       173.91500        36.841400        4.9255000
       176.72700        36.262900        4.6609900
       179.58600        35.762300        4.4106800
       182.49100        35.307200        4.1738200
       185.44200        34.874300        3.9496800
       188.44200        34.454400        3.7375700
       191.48900        34.036500        3.5368500
       194.58700        33.615000        3.3690100
       197.73400        33.210700        3.2228200
       200.93200        32.810900        3.0829700
       204.18200        32.379300        2.9491900
       207.48500        31.957000        2.9269300
       210.84000        31.587300        2.9204900
       214.25100        31.255100        2.9140600
       217.71600        30.940800        2.9076400
       221.23700        30.638500        2.9012400
       224.81600        30.342900        2.8948500
       228.45200        30.040800        2.8884800
       232.14700        29.738400        2.9115100
       235.90200        29.458900        2.9482800
       239.71700        29.193500        2.9855200
       243.59500        28.938100        3.0232300
       247.53500        28.689700        3.0569600
       251.53800        28.439800        3.0872300
       255.60700        28.186800        3.1178000
       259.74100        27.927100        3.1486800
       263.94200        27.646400        3.1869900
       268.21100        27.375900        3.2599100
       272.54900        27.115800        3.3345000
       276.95700        26.860700        3.4107900
       281.43700        26.607300        3.4888400
       285.98900        26.355100        3.5686600
       290.61500        26.107900        3.6503200
       295.31500        25.859500        3.7110000
       300.09200        25.590100        3.7639300
       304.94500        25.297600        3.8176100
       309.87800        24.980600        3.8720600
       314.89000        24.614500        3.9468300
       319.98300        24.249000        4.0594400
       325.15800        23.880400        4.1752600
       330.41800        23.485800        4.2943900
       335.76200        23.062800        4.4401100
       341.19200        22.618600        4.5992300
       346.71100        22.135700        4.7640600
       352.31900        21.550400        4.9545500
       358.01700        20.964600        5.2957400
       363.80800        20.384300        5.6604400
       369.69200        19.673800        6.0983300
       375.67200        19.032000        6.7414500
       381.74800        18.480700        7.4523700
       387.92200        17.989200        8.2383000
       394.19700        17.596400        9.1070900
       400.57300        17.369200        9.9636400
       407.05200        17.108100        10.722300
       413.63500        16.832200        11.538800
       420.32600        16.574400        12.417400
       427.12400        16.356700        13.362900
       434.03200        16.194800        14.380400
       441.05200        16.116700        15.475400
       448.18600        16.242700        16.597800
       455.43500        16.404600        17.645800
       462.80200        16.618300        18.760100
       470.28700        17.077300        19.882200
       477.89400        17.525100        20.781000
       485.62300        17.977400        21.720400
       493.47800        18.559200        22.702300
       501.45900        19.387800        23.534800
       509.57000        20.071000        24.058200
       517.81200        20.645900        24.593300
       526.18700        21.183200        25.140200
       534.69800        21.710200        25.699300
       543.34600        22.251600        26.270900
       552.13400        22.843100        26.823900
       561.06500        23.405900        27.313900
       570.13900        23.950200        27.812800
       579.36100        24.495800        28.320800
       588.73200        25.052700        28.838100
       598.25400        25.659600        29.364800
       607.93000        26.271500        29.829600
       617.76300        26.871000        30.300700
       627.75500        27.480200        30.779200
       637.90800        28.108500        31.265200
       648.22600        28.769900        31.758900
       658.71100        29.466500        32.234400
       669.36500        30.187200        32.704300
       680.19100        30.942800        33.181000
       691.19300        31.756400        33.664800
       702.37200        32.708800        34.155500
       713.73300        33.864900        34.477200
       725.27700        34.870500        34.490700
       737.00800        35.751200        34.504000
       748.92800        36.592100        34.517400
       761.04200        37.404200        34.496000
       773.35100        38.166300        34.450200
       785.85900        38.893500        34.404400
       798.57000        39.638200        34.358700
       811.48600        40.350400        34.225200
       824.61100        40.985700        34.072900
       837.94900        41.564600        33.921200
       851.50200        42.087900        33.770300
       865.27400        42.521900        33.620000
       879.26900        42.907500        33.599600
       893.49100        43.320700        33.626700
       907.94300        43.690300        33.653700
       922.62800        44.066100        33.828400
       937.55100        44.548100        34.063400
       952.71500        45.106100        34.299900
       968.12400        45.730200        34.538100
       983.78300        46.394300        34.777900
       999.69500        47.640800        34.752500
       1015.8600        47.503800        33.677400
       1032.2900        47.818400        35.319500
       1048.9900        49.454000        36.018600
       1065.9600        50.820400        35.593100
       1083.2000        51.815000        35.171500
       1100.7200        52.661900        34.754700
       1118.5200        53.417500        34.342600
       1136.6100        54.106800        33.934500
       1155.0000        54.743600        33.530900
       1173.6800        55.335800        33.131500
       1192.6600        55.888200        32.736400
       1211.9500        56.402500        32.345400
       1231.5500        56.870700        31.958500
       1251.4700        57.297600        31.608400
       1271.7200        57.697700        31.297100
       1292.2900        58.117600        31.031600
       1313.1900        58.551500        30.767700
       1334.4300        58.989900        30.505800
       1356.0100        59.431300        30.245800
       1377.9400        59.875800        29.986800
       1400.2300        60.325400        29.729500
       1422.8800        60.784600        29.473900
       1445.8900        61.262900        29.219400
       1469.2800        61.780700        28.942900
       1493.0400        62.343500        28.632700
       1517.1900        62.864300        28.176500
       1541.7300        63.310500        27.706500
       1566.6700        63.698600        27.243200
       1592.0100        64.052400        26.786600
       1617.7600        64.377800        26.337400
       1643.9200        64.679800        25.895500
       1670.5100        64.961600        25.460100
       1697.5300        65.225300        25.031300
       1724.9900        65.480200        24.608800
       1752.8900        65.718200        24.177900
       1781.2400        65.933900        23.748900
       1810.0500        66.128600        23.322700
       1839.3200        66.302800        22.903700
       1869.0700        66.460100        22.492000
       1899.3000        66.602100        22.087600
       1930.0200        66.729200        21.689400
       1961.2400        66.841800        21.297800
       1992.9600        66.936900        20.912700
       2025.2000        67.032300        20.544700
       2057.9500        67.116500        20.162000
       2091.2400        67.179000        19.783800
       2125.0600        67.225800        19.410700
       2159.4300        67.256300        19.041200
       2194.3600        67.270800        18.677100
       2229.8500        67.269200        18.317100
       2265.9200        67.250800        17.961700
       2302.5700        67.214100        17.610400
       2339.8100        67.159900        17.265100
       2377.6600        67.087100        16.923300
       2416.1100        66.993700        16.586000
       2455.1900        66.879300        16.253900
       2494.9000        66.742100        15.925900
       2535.2600        66.580000        15.602600
       2576.2600        66.391300        15.284200
       2617.9300        66.172800        14.970100
       2660.2700        65.922500        14.661700
       2703.3000        65.635800        14.356300
       2747.0300        65.307100        14.055700
       2791.4600        64.930800        13.759900
       2836.6100        64.498900        13.468600
       2882.4900        64.000600        13.181400
       2929.1100        63.422000        12.898800
       2976.4800        62.743200        12.620500
       3024.6300        61.935900        12.346600
       3073.5500        60.956800        12.076800
       3123.2600        59.734600        11.811200
       3173.7800        58.139600        11.549800
       3225.1100        55.890400        11.292600
       3277.2700        52.129600        11.039300
       3330.2800        33.869600        10.790200
       3331.9000        19.161900        10.782800
       3332.1000        19.165500        27.041400
       3384.1500        50.801000        26.350800
       3438.8800        52.753500        25.654600
       3490.7000        34.055100        25.022100
       3490.9000        34.072900        35.859400
       3494.5000        46.155000        35.802000
       3551.0200        57.470000        34.921300
       3608.4600        61.142900        34.064000
       3666.8200        63.580500        33.228000
       3726.1300        65.386700        32.414200
       3786.4000        66.768300        31.621800
       3847.6400        67.805500        30.850300
       3909.8700        68.493500        30.097300
       3973.1100        68.664700        29.363100
       4037.3800        66.531500        28.648900
       4046.0000        59.905700        28.555300
       4046.2000        59.915000        33.308500
       4102.6800        70.240800        32.620600
       4169.0300        72.207000        31.841800
       4236.4600        73.560100        31.082600
       4304.9800        74.631800        30.342100
       4374.6200        75.522300        29.619600
       4445.3700        76.275800        28.915000
       4517.2700        76.915500        28.228200
       4590.3300        77.446200        27.555400
       4664.5800        77.858100        26.901800
       4740.0300        78.097600        26.262100
       4816.6900        77.679700        25.640000
       4830.3000        75.453100        25.532100
       4830.5000        75.454100        27.000700
       4894.6000        78.811500        26.506100
       4973.7700        79.538300        25.916300
       5054.2100        80.016400        25.340700
       5135.9600        80.349900        24.777800
       5182.2000        78.863000        24.468800
       5182.4000        78.869200        25.487100
       5219.0300        80.675600        25.232200
       5303.4400        81.501600        24.660900
       5389.2200        82.076800        24.099700
       5476.3900        82.556500        23.548500
       5564.9700        82.976400        23.007200
       5654.9800        83.351600        22.476000
       5746.4400        83.690600        21.954400
       5839.3900        83.998700        21.443000
       5933.8300        84.279800        20.941100
       6029.8100        84.537000        20.449500
       6127.3300        84.772600        19.967200
       6226.4400        84.988300        19.494500
       6327.1500        85.185700        19.031500
       6429.4800        85.366400        18.578200
       6533.4800        85.531500        18.134000
       6639.1500        85.682100        17.699300
       6746.5400        85.819200        17.273900
       6855.6500        85.943600        16.857600
       6966.5400        86.056400        16.450200
       7079.2200        86.157900        16.051400
       7193.7200        86.248900        15.661700
       7310.0700        86.330200        15.280400
       7428.3100        86.401900        14.907800
       7548.4500        86.465000        14.543500
       7670.5400        86.519900        14.187600
       7794.6100        86.567000        13.839400
       7920.6800        86.606600        13.499700
       8048.7900        86.639400        13.167400
       8178.9800        86.665400        12.843000
       8311.2600        86.685200        12.525900
       8445.6900        86.698800        12.216400
       8582.2900        86.706800        11.914400
       8721.1100        86.709500        11.619200
       8862.1600        86.707000        11.331400
       9005.5000        86.699900        11.050300
       9151.1600        86.688100        10.775700
       9299.1700        86.671900        10.508100
       9449.5800        86.651700        10.246800
       9602.4200        86.627800        9.9917800
       9757.7300        86.600600        9.7429800
       9915.5500        86.573900        9.5000800
       10075.900        86.543800        9.2540000
       10238.900        86.502200        9.0140000
       10404.500        86.455700        8.7799400
       10572.800        86.403900        8.5517400
       10743.800        86.347000        8.3293100
       10917.600        86.285300        8.1125500
       11094.200        86.218700        7.9013500
       11273.600        86.147200        7.6956100
       11455.900        86.070700        7.4952500
       11641.200        85.989300        7.3001400
       11829.500        85.902600        7.1101900
       12020.800        85.810500        6.9253000
       12215.300        85.712600        6.7453700
       12412.800        85.608500        6.5702900
       12613.600        85.497800        6.3999700
       12817.600        85.379700        6.2343000
       13025.000        85.253500        6.0731800
       13235.600        85.118300        5.9165200
       13449.700        84.972600        5.7642100
       13667.200        84.814800        5.6161600
       13888.300        84.642800        5.4722800
       14112.900        84.453700        5.3324600
       14341.200        84.243600        5.1966100
       14573.100        84.006800        5.0646400
       14808.900        83.735100        4.9364600
       15048.400        83.415500        4.8119800
       15291.800        83.026400        4.6911000
       15539.100        82.526400        4.5737500
       15790.400        81.821400        4.4598200
       16045.800        80.604900        4.3492500
       16300.200        66.537400        4.2435200
       16300.400        66.537800        9.9172200
       16305.400        73.640400        9.9119600
       16569.100        80.893700        9.6381700
       16837.100        82.140400        9.3719400
       17109.400        82.836200        9.1130800
       17386.100        83.287000        8.8613700
       17667.400        83.588600        8.6166100
       17953.100        83.780400        8.3786200
       18243.500        83.877800        8.1472100
       18538.600        83.880400        7.9222000
       18838.400        83.768200        7.7034100
       19143.100        83.479500        7.4906600
       19452.700        82.783700        7.2838000
       19693.100        75.563000        7.1293100
       19693.300        75.563600        10.112800
       19767.400        81.675000        10.057900
       20087.100        82.998600        9.8262300
       20412.000        83.320900        9.5999100
       20472.000        83.702200        9.5590600
       20472.200        83.705200        10.992600
       20742.100        84.658900        10.776700
       21077.600        85.334400        10.518100
       21418.500        85.835400        10.264500
       21765.000        86.240000        10.016000
       22117.000        86.580200        9.7725900
       22474.700        86.873100        9.5341400
       22838.200        87.129300        9.3006200
       23207.600        87.355900        9.0720000
       23583.000        87.557700        8.8482100
       23964.400        87.738500        8.6292300
       24352.000        87.901300        8.4149600
       24745.900        88.048200        8.2053800
       25146.200        88.181100        8.0004000
       25552.900        88.301500        7.7999700
       25966.200        88.410800        7.6040200
       26386.100        88.509900        7.4124800
       26812.900        88.599900        7.2252900
       27246.600        88.681500        7.0423700
       27687.300        88.755500        6.8636600
       28135.100        88.822500        6.6890900
       28590.200        88.883100        6.5185800
       29052.600        88.937700        6.3520700
       29522.500        88.986800        6.1894800
       30000.000        89.030900        6.0307400
       30100.000        88.777700        6.1301600
       30200.000        88.787200        6.0976200
       30300.000        88.796400        6.0650700
       30400.000        88.805300        6.0325300
       30500.000        88.814000        6.0010800
       30600.000        88.822500        5.9696400
       30700.000        88.830700        5.9381900
       30800.000        88.838800        5.9067400
       30900.000        88.846600        5.8763500
       31000.000        88.854200        5.8459500
       31200.000        88.869000        5.7851600
       31350.000        88.879600        5.7408800
       31500.000        88.890100        5.6966000
       31600.000        88.896800        5.6675600
       31700.000        88.903300        5.6385100
       31800.000        88.909500        5.6094700
       31900.000        88.915400        5.5804200
       32100.000        88.926800        5.5242100
       32300.000        88.937500        5.4680100
       32450.000        88.945000        5.4270400
       32600.000        88.952200        5.3860800
       32800.000        88.961200        5.3329800
       33000.000        88.969600        5.2798700
       33200.000        88.977500        5.2286500
       33400.000        88.984900        5.1774400
       33600.000        88.991900        5.1278100
       33800.000        88.998500        5.0781900
       33950.000        89.003100        5.0419700
       34100.000        89.007600        5.0057500
       34300.000        89.013100        4.9587400
       34500.000        89.018300        4.9117200
       34700.000        89.023000        4.8661100
       34900.000        89.027500        4.8205100
       35100.000        89.031500        4.7763200
       35300.000        89.035300        4.7321400
       35700.000        89.042100        4.6464000
       36030.000        89.046800        4.5775400
       36300.000        89.050200        4.5228200
       36500.000        89.052500        4.4822800
       36800.000        89.055400        4.4235500
       37000.000        89.057100        4.3844000
       37500.000        89.060600        4.2899300
       38000.000        89.063300        4.1987000
       38300.000        89.064500        4.1451000
       38500.000        89.064900        4.1093600
       38800.000        89.065100        4.0575700
       39000.000        89.064900        4.0230400
       39500.000        89.063900        3.9395900
       39800.000        89.062800        3.8911800
       40000.000        89.062000        3.8589000
       40400.000        89.059900        3.7966400
       40800.000        89.057100        3.7343900
       41100.000        89.054600        3.6899300
       41500.000        89.050900        3.6306500
       41900.000        89.046800        3.5741400
       42300.000        89.042200        3.5176300
       42600.000        89.038600        3.4772000
       43000.000        89.033400        3.4233000
       43800.000        89.022400        3.3203700
       44500.000        89.011700        3.2343200
       45300.000        88.999100        3.1400700
       46000.000        88.987200        3.0608900
       46500.000        88.978300        3.0062700
       47000.000        88.969100        2.9531900
       47500.000        88.959600        2.9016000
       48000.000        88.950100        2.8514400
       49000.000        88.930400        2.7551700
       49500.000        88.920500        2.7089800
       50000.000        88.910500        2.6640100
       51000.000        88.890000        2.5768100
       52000.000        88.868800        2.4940700
       53000.000        88.847200        2.4154900
       54000.000        88.825300        2.3407800
       55000.000        88.803100        2.2697000
       56000.000        88.781000        2.2017300
       56800.000        88.763000        2.1496700
       57530.000        88.746600        2.1038500
       58000.000        88.736000        2.0751600
       58500.000        88.724700        2.0453200
       59540.000        88.701200        1.9854100
       59800.000        88.695300        1.9708700
       60000.000        88.690800        1.9598000
       60800.000        88.672500        1.9162700
       61500.000        88.656600        1.8794300
       62300.000        88.638300        1.8386900
       63000.000        88.622400        1.8041800
       63600.000        88.608700        1.7754200
       64200.000        88.595000        1.7473700
       65374.300        88.568200        1.6944500
       66100.000        88.551500        1.6629500
       66830.000        88.534700        1.6322000
       67400.000        88.521600        1.6088100
       68000.000        88.507800        1.5847500
       69000.000        88.484600        1.5459200
       70000.000        88.461500        1.5085700
       71000.000        88.438100        1.4724900
       72000.000        88.414700        1.4377600
       73500.000        88.379000        1.3880500
       74960.000        88.344300        1.3422300
       75500.000        88.331200        1.3258900
       76000.000        88.319100        1.3110400
       77110.000        88.291900        1.2789900
       78600.000        88.254900        1.2379000
       79300.000        88.237200        1.2193100
       80000.000        88.219400        1.2011600
       81500.000        88.180400        1.1635600
       83000.000        88.140300        1.1278000
       84000.000        88.112800        1.1049200
       85000.000        88.084700        1.0827600
       86500.000        88.041000        1.0508200
       88000.000        87.995400        1.0203500
       89000.000        87.963700        1.0008000
       90000.000        87.930900       0.98184200
       90800.000        87.903600       0.96716900
       91500.000        87.879000       0.95433100
       92300.000        87.849900       0.94029800
       93000.000        87.823500       0.92802000
       93500.000        87.804000       0.91956500
       94000.000        87.784000       0.91111000
       94500.000        87.763500       0.90289600
       95000.000        87.742300       0.89468300
       95800.000        87.707100       0.88200100
       96500.000        87.674700       0.87090500
       97300.000        87.635700       0.85874900
       98000.000        87.599700       0.84811200
       98500.000        87.572600       0.84077400
       99000.000        87.544500       0.83343600
       99500.000        87.515000       0.82629700
       100000.00        87.484200       0.81915800
