;  Atomic scattering factors for Tl.
;   
;  Concatenation of data from CXRO <http://www-cxro.lbl.gov>
;  and LLNL <http://www-phys.llnl.gov/V_Div/scattering/asf.html>
;  
;  E (eV) f1 f2
;---------------
       10.000000       -9999.0000        1.8039200
       10.161700       -9999.0000        1.7555500
       10.326100       -9999.0000        1.6958900
       10.493100       -9999.0000        1.5954600
       10.662800       -9999.0000        1.4662500
       10.835300       -9999.0000        1.3934100
       11.010600       -9999.0000        1.3134900
       11.188600       -9999.0000        1.2078300
       11.369600       -9999.0000        1.1326100
       11.553500       -9999.0000        1.0738700
       11.740400       -9999.0000        1.0385000
       11.930300       -9999.0000        1.0467800
       12.123200       -9999.0000        1.0551300
       12.319300       -9999.0000        1.0978500
       12.518600       -9999.0000        1.1507600
       12.721000       -9999.0000        1.2828200
       12.926800       -9999.0000        1.4541000
       13.135900       -9999.0000        1.6436700
       13.348300       -9999.0000        1.8732500
       13.564200       -9999.0000        2.1409300
       13.783600       -9999.0000        2.3382200
       14.006600       -9999.0000        2.5381700
       14.233100       -9999.0000        2.7552300
       14.463300       -9999.0000        2.8971200
       14.697300       -9999.0000        2.9976900
       14.935000       -9999.0000        3.1017500
       15.176500       -9999.0000        3.1806400
       15.422000       -9999.0000        3.2547500
       15.671400       -9999.0000        3.2543800
       15.924900       -9999.0000        3.2481000
       16.182500       -9999.0000        3.2440300
       16.444200       -9999.0000        3.2631700
       16.710200       -9999.0000        3.2824200
       16.980500       -9999.0000        3.3017800
       17.255100       -9999.0000        3.3212600
       17.534200       -9999.0000        3.3641200
       17.817800       -9999.0000        3.4162700
       18.106000       -9999.0000        3.4692400
       18.398900       -9999.0000        3.5230300
       18.696400       -9999.0000        3.5776500
       18.998800       -9999.0000        3.6331200
       19.306100       -9999.0000        3.6894500
       19.618400       -9999.0000        3.7466500
       19.935700       -9999.0000        3.8387400
       20.258200       -9999.0000        3.9550600
       20.585800       -9999.0000        4.0749100
       20.918800       -9999.0000        4.1983900
       21.257100       -9999.0000        4.3256200
       21.600900       -9999.0000        4.4566900
       21.950300       -9999.0000        4.5925600
       22.305300       -9999.0000        4.7604200
       22.666100       -9999.0000        4.9344200
       23.032700       -9999.0000        5.1147800
       23.405300       -9999.0000        5.3017300
       23.783800       -9999.0000        5.4955100
       24.168500       -9999.0000        5.6963800
       24.559400       -9999.0000        5.9045900
       24.956600       -9999.0000        6.1204100
       25.360300       -9999.0000        6.3441200
       25.770500       -9999.0000        6.5760000
       26.187300       -9999.0000        6.8262700
       26.610900       -9999.0000        7.0924800
       27.041300       -9999.0000        7.3690800
       27.478600       -9999.0000        7.6564700
       27.923100       -9999.0000        7.9550700
       28.374700       -9999.0000        8.2653100
       28.833700       -9999.0000        8.5876500
       29.300000       -3.6073500        8.9039900
       29.773900       -3.5908500        9.2212600
       30.255500       -3.5721100        9.5498300
       30.744900       -3.5435300        9.8901200
       31.242100       -3.5030100        10.242500
       31.747500       -3.4474000        10.607500
       32.260900       -3.3608300        10.985400
       32.782700       -3.2460600        11.350500
       33.313000       -3.1336500        11.696100
       33.851800       -3.0208100        12.052200
       34.399300       -2.8986400        12.419200
       34.955700       -2.7614400        12.797300
       35.521100       -2.6035500        13.187000
       36.095600       -2.4094000        13.588500
       36.679400       -2.1699700        13.955200
       37.272700       -1.9376700        14.282400
       37.875500       -1.7246600        14.617200
       38.488200       -1.5055800        14.960000
       39.110700       -1.2764200        15.310700
       39.743200       -1.0342200        15.669700
       40.386100      -0.74430400        16.034000
       41.039300      -0.44932800        16.352300
       41.703100      -0.16950500        16.677100
       42.377600       0.11850400        17.008200
       43.063000       0.41817200        17.345900
       43.759500       0.73438800        17.690400
       44.467300        1.0731200        18.041600
       45.186500        1.4542700        18.399900
       45.917400        1.8644500        18.706400
       46.660000        2.2684200        18.991400
       47.414700        2.6666500        19.280800
       48.181600        3.0784700        19.574600
       48.960900        3.5120600        19.872900
       49.752800        3.9916900        20.175700
       50.557600        4.5058400        20.410900
       51.375300        5.0038000        20.608000
       52.206200        5.4821400        20.807100
       53.050600        5.9668300        21.008100
       53.908700        6.4657600        21.211000
       54.780600        7.0007800        21.415900
       55.666700        7.5517000        21.562700
       56.567000        8.0917800        21.693900
       57.482000        8.6271900        21.825800
       58.411700        9.1735000        21.958600
       59.356400        9.7374900        22.092200
       60.316500        10.327600        22.226600
       61.292100        10.955400        22.361800
       62.283400        11.621200        22.497900
       63.290800        12.546500        22.634800
       64.314500        13.454500        22.367500
       65.354700        14.142000        22.060600
       66.411800        14.753100        21.757800
       67.485900        15.312700        21.459200
       68.577500        15.834900        21.164700
       69.686700        16.329000        20.874200
       70.813800        16.801900        20.587800
       71.959100        17.259700        20.305200
       73.123000        17.709100        20.026600
       74.305700        18.160000        19.751700
       75.507600        18.643300        19.480700
       76.728900        19.150800        19.109900
       77.969900        19.589100        18.664800
       79.231000        19.941600        18.230100
       80.512500        20.255400        17.805500
       81.814700        20.535700        17.390800
       83.138000        20.781300        16.987300
       84.482700        21.010800        16.614000
       85.849100        21.232900        16.248800
       87.237700        21.445700        15.891700
       88.648700        21.650700        15.542500
       90.082500        21.863800        15.200900
       91.539500        22.082200        14.841500
       93.020100        22.270000        14.450900
       94.524600        22.427900        14.070600
       96.053500        22.569400        13.700300
       97.607100        22.701200        13.339700
       99.185800        22.831600        12.988600
       100.79000        22.992800        12.646700
       102.42000        23.130200        12.210500
       104.07700        23.209300        11.782000
       105.76000        23.252000        11.368500
       107.47100        23.272000        10.969600
       109.20900        23.275400        10.584600
       110.97500        23.264300        10.213200
       112.77000        23.287000        9.8547900
       114.59400        23.289900        9.4225100
       116.44800        23.214100        8.9837100
       118.33100        23.091100        8.5653300
       120.24500        22.927700        8.1664200
       122.19000        22.712900        7.7861100
       124.16600        22.442000        7.4845400
       126.17500        22.194000        7.2711400
       128.21500        21.995100        7.0638200
       130.28900        21.803300        6.8624100
       132.39700        21.615800        6.6667600
       134.53800        21.433200        6.4766700
       136.71400        21.250300        6.2782900
       138.92500        21.054000        6.0772000
       141.17200        20.841500        5.8825700
       143.45600        20.616400        5.6941600
       145.77600        20.375900        5.5117900
       148.13400        20.120100        5.3383400
       150.53000        19.848300        5.1708400
       152.96400        19.557600        5.0085800
       155.43900        19.208600        4.8514200
       157.95300        18.842800        4.7690200
       160.50700        18.499000        4.6997400
       163.10300        18.146700        4.6314500
       165.74200        17.710700        4.5641700
       168.42200        17.265400        4.6245800
       171.14600        16.877600        4.6998200
       173.91500        16.475000        4.7762800
       176.72700        16.060400        4.9145700
       179.58600        15.670000        5.0859800
       182.49100        15.270700        5.2633700
       185.44200        14.861400        5.5007900
       188.44200        14.495300        5.8089200
       191.48900        14.182600        6.1342900
       194.58700        13.904400        6.4478600
       197.73400        13.633800        6.7597200
       200.93200        13.364700        7.0866800
       204.18200        13.105500        7.4294300
       207.48500        12.855400        7.7900000
       210.84000        12.617500        8.1693200
       214.25100        12.392100        8.5671000
       217.71600        12.181100        8.9842600
       221.23700        11.990100        9.4217100
       224.81600        11.820200        9.8712500
       228.45200        11.660700        10.327300
       232.14700        11.511900        10.804500
       235.90200        11.379000        11.303700
       239.71700        11.267500        11.826000
       243.59500        11.182900        12.372400
       247.53500        11.148100        12.944100
       251.53800        11.139300        13.474400
       255.60700        11.129500        14.025200
       259.74100        11.138200        14.598500
       263.94200        11.175800        15.195300
       268.21100        11.275600        15.816400
       272.54900        11.440800        16.414400
       276.95700        11.607100        16.934200
       281.43700        11.752500        17.470400
       285.98900        11.905600        18.023600
       290.61500        12.078100        18.594300
       295.31500        12.279900        19.183000
       300.09200        12.540900        19.790500
       304.94500        12.835800        20.324600
       309.87800        13.117200        20.861900
       314.89000        13.408100        21.413500
       319.98300        13.726100        21.979600
       325.15800        14.089700        22.560700
       330.41800        14.543500        23.149700
       335.76200        15.021900        23.575400
       341.19200        15.442600        24.009000
       346.71100        15.857100        24.450500
       352.31900        16.279200        24.900200
       358.01700        16.719300        25.358100
       363.80800        17.198900        25.824500
       369.69200        17.716600        26.236900
       375.67200        18.222500        26.618000
       381.74800        18.714400        27.004500
       387.92200        19.218700        27.396800
       394.19700        19.742100        27.794700
       400.57300        20.293300        28.198400
       407.05200        20.914200        28.607900
       413.63500        21.613200        28.964500
       420.32600        22.295900        29.157900
       427.12400        22.909000        29.352600
       434.03200        23.502500        29.548600
       441.05200        24.090200        29.745900
       448.18600        24.688600        29.944600
       455.43500        25.311300        30.132500
       462.80200        25.934500        30.252400
       470.28700        26.524900        30.362200
       477.89400        27.098200        30.472300
       485.62300        27.667000        30.583700
       493.47800        28.237300        30.695700
       501.45900        28.814000        30.807600
       509.57000        29.409500        30.918800
       517.81200        30.029900        31.018100
       526.18700        30.698400        31.074400
       534.69800        31.361500        31.042300
       543.34600        31.955600        30.966600
       552.13400        32.515400        30.892900
       561.06500        33.058500        30.808500
       570.13900        33.583900        30.714100
       579.36100        34.082500        30.585100
       588.73200        34.537200        30.448500
       598.25400        34.947800        30.307100
       607.93000        35.310700        30.165400
       617.76300        35.601200        30.024500
       627.75500        35.784900        29.900900
       637.90800        35.805400        29.984000
       648.22600        35.884300        30.341500
       658.71100        36.236600        30.888600
       669.36500        36.862000        31.445300
       680.19100        37.739900        31.789900
       691.19300        38.664900        31.946600
       702.37200        39.597100        31.911800
       713.73300        40.469300        31.719800
       725.27700        41.188100        31.421000
       737.00800        41.801200        31.124900
       748.92800        42.338600        30.831300
       761.04200        42.805700        30.544300
       773.35100        43.159200        30.300900
       785.85900        43.475000        30.192500
       798.57000        43.881500        30.195000
       811.48600        44.364900        30.197200
       824.61100        44.907100        30.198900
       837.94900        45.524900        30.200400
       851.50200        46.252400        30.095700
       865.27400        46.982100        29.859200
       879.26900        47.609800        29.507500
       893.49100        48.156600        29.159400
       907.94300        48.657800        28.815100
       922.62800        49.121100        28.474600
       937.55100        49.557800        28.160600
       952.71500        49.989300        27.855900
       968.12400        50.419900        27.559700
       983.78300        50.856300        27.266100
       999.69500        51.308900        26.962500
       1015.8600        51.787100        26.648300
       1032.2900        52.250900        26.206400
       1048.9900        52.631800        25.770100
       1065.9600        52.973300        25.340200
       1083.2000        53.284800        24.916500
       1100.7200        53.570600        24.499800
       1118.5200        53.834800        24.089800
       1136.6100        54.079300        23.685900
       1155.0000        54.305500        23.288600
       1173.6800        54.515100        22.897600
       1192.6600        54.709100        22.512600
       1211.9500        54.888000        22.133600
       1231.5500        55.052800        21.760700
       1251.4700        55.203900        21.393600
       1271.7200        55.341900        21.032500
       1292.2900        55.467400        20.677000
       1313.1900        55.580700        20.327100
       1334.4300        55.681900        19.982800
       1356.0100        55.771400        19.644000
       1377.9400        55.849400        19.310200
       1400.2300        55.915800        18.982100
       1422.8800        55.971700        18.659400
       1445.8900        56.017200        18.341200
       1469.2800        56.052400        18.027100
       1493.0400        56.078100        17.716400
       1517.1900        56.091500        17.401800
       1541.7300        56.086500        17.091600
       1566.6700        56.066200        16.786700
       1592.0100        56.031200        16.486800
       1617.7600        55.980900        16.192000
       1643.9200        55.915600        15.902300
       1670.5100        55.834900        15.617700
       1697.5300        55.738400        15.337900
       1724.9900        55.630500        15.062500
       1752.8900        55.505200        14.779700
       1781.2400        55.350500        14.497800
       1810.0500        55.169000        14.217600
       1839.3200        54.957100        13.942600
       1869.0700        54.714600        13.673000
       1899.3000        54.438900        13.408800
       1930.0200        54.126400        13.149400
       1961.2400        53.771900        12.894800
       1992.9600        53.368300        12.645000
       2025.2000        52.915400        12.407600
       2057.9500        52.402200        12.158700
       2091.2400        51.798600        11.912200
       2125.0600        51.092700        11.668800
       2159.4300        50.256000        11.429000
       2194.3600        49.246700        11.192000
       2229.8500        47.997100        10.958300
       2265.9200        46.388500        10.727500
       2302.5700        44.178900        10.500100
       2339.8100        40.720900        10.275600
       2377.6600        32.280400        10.054400
       2389.2000        6.2125400        9.9885200
       2389.4000        6.2124500        27.087000
       2416.1100        35.907500        26.639200
       2455.1900        38.246700        26.006000
       2485.0000        19.535500        25.539700
       2485.2000        19.561800        37.368200
       2494.9000        37.132300        37.156900
       2535.2600        45.392500        36.299100
       2576.2600        49.221900        35.461500
       2617.9300        51.869400        34.644100
       2660.2700        53.887100        33.846600
       2703.3000        55.486400        33.068400
       2747.0300        56.766800        32.308600
       2791.4600        57.773400        31.568400
       2836.6100        58.505000        30.845300
       2882.4900        58.874100        30.139800
       2929.1100        58.401500        29.450600
       2956.5000        50.711600        29.058100
       2956.7000        50.716200        33.665500
       2976.4800        58.860300        33.349200
       3024.6300        61.466000        32.600200
       3073.5500        62.959300        31.867700
       3123.2600        64.090600        31.151800
       3173.7800        65.010900        30.454300
       3225.1100        65.774500        29.771800
       3277.2700        66.396800        29.107000
       3330.2800        66.858800        28.456300
       3384.1500        66.999500        27.822100
       3415.6000        64.458600        27.462800
       3415.8000        64.461100        29.041100
       3438.8800        67.446300        28.761500
       3494.5000        68.573800        28.106100
       3551.0200        69.276800        27.467700
       3608.4600        69.792900        26.844100
       3666.8200        70.080000        26.234400
       3704.0000        68.613500        25.858100
       3704.2000        68.615000        26.804400
       3726.1300        70.421300        26.595900
       3786.4000        71.287000        26.037400
       3847.6400        71.893300        25.484700
       3909.8700        72.409400        24.940600
       3973.1100        72.870800        24.404200
       4037.3800        73.290000        23.874100
       4102.6800        73.672600        23.350900
       4169.0300        74.024500        22.836800
       4236.4600        74.350600        22.331100
       4304.9800        74.652800        21.832300
       4374.6200        74.931300        21.341300
       4445.3700        75.189300        20.859500
       4517.2700        75.428600        20.385500
       4590.3300        75.650300        19.919800
       4664.5800        75.854900        19.462100
       4740.0300        76.044000        19.012800
       4816.6900        76.218300        18.571800
       4894.6000        76.378800        18.139100
       4973.7700        76.526100        17.714300
       5054.2100        76.660900        17.298000
       5135.9600        76.784100        16.889800
       5219.0300        76.896200        16.489800
       5303.4400        76.997900        16.097900
       5389.2200        77.089600        15.713800
       5476.3900        77.171600        15.337600
       5564.9700        77.244800        14.969600
       5654.9800        77.309600        14.609200
       5746.4400        77.366100        14.256400
       5839.3900        77.414900        13.911200
       5933.8300        77.456300        13.573600
       6029.8100        77.490800        13.243400
       6127.3300        77.518600        12.920600
       6226.4400        77.540000        12.604800
       6327.1500        77.555300        12.296400
       6429.4800        77.565000        11.994900
       6533.4800        77.569000        11.700000
       6639.1500        77.567500        11.412100
       6746.5400        77.561000        11.130900
       6855.6500        77.549600        10.856300
       6966.5400        77.533500        10.588100
       7079.2200        77.512800        10.326000
       7193.7200        77.487400        10.070200
       7310.0700        77.457900        9.8207200
       7428.3100        77.424300        9.5769400
       7548.4500        77.386200        9.3392200
       7670.5400        77.344300        9.1073500
       7794.6100        77.298600        8.8810700
       7920.6800        77.248900        8.6602600
       8048.7900        77.195200        8.4446200
       8178.9800        77.137400        8.2345600
       8311.2600        77.075900        8.0296700
       8445.6900        77.010300        7.8297700
       8582.2900        76.940500        7.6348600
       8721.1100        76.866500        7.4447800
       8862.1600        76.788200        7.2597500
       9005.5000        76.705500        7.0790200
       9151.1600        76.617800        6.9032600
       9299.1700        76.525400        6.7316700
       9449.5800        76.427400        6.5642700
       9602.4200        76.323700        6.4013100
       9757.7300        76.214100        6.2424600
       9915.5500        76.099100        6.0877800
       10075.900        75.977100        5.9301200
       10238.900        75.840400        5.7767100
       10404.500        75.691900        5.6274700
       10572.800        75.529600        5.4822800
       10743.800        75.351700        5.3410600
       10917.600        75.155200        5.2037200
       11094.200        74.936200        5.0701600
       11273.600        74.689000        4.9402900
       11455.900        74.405600        4.8140300
       11641.200        74.073300        4.6912800
       11829.500        73.671300        4.5719600
       12020.800        73.161600        4.4560000
       12215.300        72.462200        4.3432900
       12412.800        71.335500        4.2337700
       12613.600        68.059900        4.1273400
       12657.400        56.260400        4.1047200
       12657.600        56.261000        10.213600
       12817.600        70.687800        9.9891800
       13025.000        72.289400        9.7096900
       13235.600        73.098400        9.4380300
       13449.700        73.587600        9.1739800
       13667.200        73.881100        8.9173100
       13888.300        74.018500        8.6678300
       14112.900        73.994400        8.4253300
       14341.200        73.737300        8.1896200
       14573.100        72.867700        7.9605000
       14697.800        65.829000        7.8415000
       14698.000        65.829100        10.973800
       14808.900        72.868400        10.857200
       15048.400        73.992800        10.612400
       15291.800        73.965400        10.373000
       15346.600        71.161700        10.320400
       15346.800        71.162300        11.786900
       15539.100        75.127000        11.571400
       15790.400        75.962600        11.299600
       16045.800        76.544900        11.032500
       16305.400        77.008600        10.770200
       16569.100        77.397100        10.512700
       16837.100        77.732000        10.259900
       17109.400        78.025300        10.011900
       17386.100        78.285400        9.7687500
       17667.400        78.517800        9.5303000
       17953.100        78.726600        9.2965900
       18243.500        78.915200        9.0675700
       18538.600        79.085900        8.8432400
       18838.400        79.241000        8.6235400
       19143.100        79.381900        8.4084400
       19452.700        79.510200        8.1979000
       19767.400        79.627100        7.9918500
       20087.100        79.733600        7.7902700
       20412.000        79.830500        7.5930900
       20742.100        79.918800        7.4002600
       21077.600        79.999100        7.2117200
       21418.500        80.072000        7.0274100
       21765.000        80.138200        6.8472800
       22117.000        80.198000        6.6712600
       22474.700        80.252000        6.4992900
       22838.200        80.300500        6.3313000
       23207.600        80.344100        6.1672300
       23583.000        80.382900        6.0070100
       23964.400        80.417400        5.8505900
       24352.000        80.447800        5.6978800
       24745.900        80.474400        5.5488200
       25146.200        80.497400        5.4033600
       25552.900        80.517200        5.2614100
       25966.200        80.533900        5.1229200
       26386.100        80.547600        4.9878000
       26812.900        80.558700        4.8560200
       27246.600        80.567200        4.7274800
       27687.300        80.573400        4.6021300
       28135.100        80.577400        4.4799000
       28590.200        80.579300        4.3607200
       29052.600        80.579300        4.2445400
       29522.500        80.577500        4.1312900
       30000.000        80.574000        4.0209000
       30400.000        80.420100        3.9645900
       30800.000        80.416700        3.8788300
       31200.000        80.412500        3.7959900
       31500.000        80.408800        3.7357000
       31900.000        80.403200        3.6571400
       32300.000        80.396700        3.5811900
       32600.000        80.391400        3.5258500
       33000.000        80.383800        3.4541700
       33400.000        80.375600        3.3847200
       33800.000        80.366900        3.3174600
       34100.000        80.360100        3.2684100
       34500.000        80.350700        3.2047800
       34900.000        80.340900        3.1431000
       35300.000        80.331000        3.0832200
       35700.000        80.320600        3.0251100
       36030.000        80.312000        2.9784700
       36500.000        80.299400        2.9140000
       37000.000        80.285800        2.8478200
       37500.000        80.271900        2.7840000
       38000.000        80.258100        2.7224200
       38500.000        80.243800        2.6624700
       39000.000        80.229500        2.6045900
       39500.000        80.214800        2.5486800
       40000.000        80.200100        2.4946600
       40800.000        80.176300        2.4113200
       41500.000        80.154900        2.3419500
       42300.000        80.130300        2.2664700
       43000.000        80.108600        2.2035400
       43800.000        80.083700        2.1348400
       44500.000        80.061900        2.0774700
       45300.000        80.036900        2.0147400
       46000.000        80.015100        1.9621400
       46500.000        79.999400        1.9258900
       47000.000        79.983800        1.8906800
       47500.000        79.968100        1.8564800
       48000.000        79.952400        1.8232500
       48500.000        79.936800        1.7909400
       49000.000        79.921200        1.7595300
       50000.000        79.890000        1.6992700
       50300.000        79.880700        1.6816800
       50594.400        79.871500        1.6647000
       51300.000        79.849400        1.6250800
       52000.000        79.827400        1.5872200
       53000.000        79.795900        1.5355000
       54000.000        79.764300        1.4863800
       55000.000        79.732500        1.4397000
       56000.000        79.700700        1.3951700
       56800.000        79.674900        1.3610900
       57530.000        79.651300        1.3311200
       58000.000        79.636000        1.3123700
       58500.000        79.619700        1.2928700
       59540.000        79.585400        1.2537500
       59800.000        79.576700        1.2442600
       60000.000        79.570100        1.2370400
       60800.000        79.543000        1.2086800
       61500.000        79.519300        1.1847000
       62300.000        79.491700        1.1581900
       63000.000        79.467000        1.1357500
       64000.000        79.431200        1.1048600
       65000.000        79.394400        1.0752700
       65900.000        79.360400        1.0496500
       66830.000        79.324100        1.0241800
       67400.000        79.301300        1.0090400
       68000.000        79.276700       0.99348200
       69000.000        79.234400       0.96837600
       69500.000        79.212500       0.95631400
       70000.000        79.190100       0.94425200
       70500.000        79.167200       0.93256500
       71000.000        79.143600       0.92087900
       71500.000        79.119300       0.90963900
       72000.000        79.094200       0.89839900
       72800.000        79.052300       0.88125600
       73500.000        79.013800       0.86625500
       74200.000        78.973200       0.85206800
       74960.000        78.926400       0.83666500
       75200.000        78.911000       0.83197400
       75500.000        78.891200       0.82611100
       76000.000        78.857000       0.81652300
       76600.000        78.813700       0.80534800
       76900.000        78.790900       0.79976100
       77110.000        78.774600       0.79585000
       77500.000        78.743100       0.78891700
       77900.000        78.709200       0.78180600
       78300.000        78.673600       0.77469500
       78600.000        78.645600       0.76936200
       79000.000        78.606300       0.76252200
       79300.000        78.575300       0.75739200
       79700.000        78.531600       0.75071700
       79850.000        78.514400       0.74821300
       80000.000        78.496800       0.74571000
       80200.000        78.472600       0.74249300
       80400.000        78.447400       0.73927500
       80600.000        78.421300       0.73605800
       80800.000        78.394100       0.73284100
       81000.000        78.365700       0.72962300
       81200.000        78.336100       0.72640600
       81350.000        78.313100       0.72399300
       81500.000        78.289100       0.72158000
       81700.000        78.255900       0.71852300
       81900.000        78.220900       0.71546500
       82100.000        78.183900       0.71240800
       82300.000        78.144900       0.70935000
       82500.000        78.103400       0.70629300
       82700.000        78.059300       0.70323500
       82850.000        78.024200       0.70094200
       83000.000        77.987200       0.69864900
       83200.000        77.934600       0.69573600
       83400.000        77.877600       0.69282400
       83550.000        77.831500       0.69063900
       83700.000        77.782200       0.68845400
       83800.000        77.747300       0.68699800
       83900.000        77.710500       0.68554200
       84000.000        77.671700       0.68408500
       84100.000        77.630700       0.68262900
       84170.000        77.600400       0.68161000
       84250.000        77.564200       0.68044500
       84330.000        77.526100       0.67927900
       84400.000        77.490900       0.67826000
       84500.000        77.437500       0.67687000
       84600.000        77.379800       0.67548000
       84700.000        77.317100       0.67409000
       84800.000        77.248400       0.67270000
       84880.000        77.188400       0.67158800
       84950.000        77.131500       0.67061600
       85020.000        77.069800       0.66964300
       85060.000        77.032100       0.66908700
       85100.000        76.992300       0.66853100
       85150.000        76.938600       0.66783600
       85200.000        76.882400       0.66714100
       85250.000        76.820800       0.66644600
       85280.000        76.781100       0.66602900
       85300.000        76.753500       0.66575100
       85315.000        76.732100       0.66554200
       85330.000        76.710100       0.66533400
       85340.000        76.695000       0.66519500
       85345.000        76.687400       0.66512500
       85347.000        76.684300       0.66509800
       85348.500        76.682000       0.66507700
       85350.000        76.674100       0.66505600
       85352.000        76.676500       0.66502800
       85354.000        76.673400       0.66500000
       85358.000        76.667100       0.66494500
       85365.000        76.656000       0.66484700
       85380.000        76.631600       0.66463900
       85400.000        76.597700       0.66436100
       85420.000        76.562300       0.66408300
       85450.000        76.505800       0.66366600
       85470.000        76.465700       0.66338800
       85500.000        76.401200       0.66297100
       85520.000        76.355000       0.66269300
       85550.000        76.279900       0.66227600
       85570.000        76.225400       0.66199800
       85585.000        76.181800       0.66179000
       85600.000        76.135600       0.66158100
       85615.000        76.086400       0.66137300
       85630.000        76.033900       0.66116400
       85640.000        75.996800       0.66102500
       85650.000        75.957800       0.66088600
       85665.000        75.895300       0.66067800
       85680.000        75.827300       0.66046900
       85690.000        75.778400       0.66033000
       85700.000        75.726200       0.66019100
       85710.000        75.670300       0.66005200
       85720.000        75.610000       0.65991300
       85730.000        75.544700       0.65977400
       85740.000        75.473400       0.65963500
       85748.000        75.411200       0.65952400
       85755.000        75.352300       0.65942700
       85763.000        75.279300       0.65931600
       85770.000        75.209200       0.65921800
       85775.000        75.154900       0.65914900
       85780.000        75.096600       0.65907900
       85785.000        75.033700       0.65901000
       85790.000        74.965300       0.65894000
       85795.000        74.890300       0.65887100
       85800.000        74.807600       0.65880100
       85805.000        74.715200       0.65873200
       85810.000        74.610400       0.65866200
       85813.000        74.540200       0.65862100
       85815.000        74.489800       0.65859300
       85818.000        74.407600       0.65855100
       85820.000        74.347500       0.65852300
       85823.000        74.248400       0.65848200
       85825.000        74.174900       0.65845400
       85828.000        74.050300       0.65841200
       85830.000        73.955300       0.65838400
       85833.000        73.788500       0.65834300
       85835.000        73.655500       0.65831500
       85837.000        73.497900       0.65828700
       85838.000        73.407200       0.65827300
       85839.000        73.305300       0.65825900
       85840.500        73.127700       0.65823800
       85842.000        72.907000       0.65821800
       85843.000        72.726100       0.65820400
       85844.000        72.503700       0.65819000
       85845.000        72.221800       0.65817600
       85846.000        71.844400       0.65816200
       85847.400        70.996900       0.65814200
       85848.800        69.019500       0.65812300
       85848.900        69.089100        1.3970200
       85849.000        69.306600        2.1359200
       85849.100        69.514800        2.8748200
       85849.300        69.938500        4.3526200
       85849.700        70.777500        7.3082100
       85850.500        72.410600        13.219400
       85851.400        74.161400        6.9387400
       85852.300        75.516100       0.65807600
       85852.300        75.495300       0.65807500
       85853.200        74.468500       0.65806300
       85854.100        74.124400        4.6344200
       85854.900        73.972400       0.99039500
       85855.800        73.904800        1.4768400
       85857.000        73.347500        2.5870600
       85858.000        73.373300        3.3817800
       85859.000        73.733600        3.3416100
       85860.000        74.018800        3.3022100
       85861.000        74.120500        3.2629800
       85862.000        74.192200        3.2248100
       85863.000        74.243000        3.1865000
       85864.000        74.279400        3.1492100
       85865.000        74.309600        3.1386600
       85866.000        74.335100        3.1283400
       85867.000        74.365400        3.1179000
       85867.800        74.387500        3.1096700
       85868.500        74.405300        3.1024600
       85870.000        74.437500        3.0871000
       85871.500        74.466700        3.0849700
       85873.000        74.497300        3.0828400
       85874.000        74.516700        3.0814400
       85875.000        74.535700        3.0800500
       85876.500        74.561900        3.0829500
       85878.000        74.590800        3.0859000
       85880.000        74.627100        3.0898000
       85883.000        74.680600        3.0988700
       85885.000        74.716100        3.1049100
       85888.000        74.768400        3.1137400
       85890.000        74.803000        3.1196200
       85894.000        74.870800        3.1290300
       85898.000        74.935700        3.1356800
       85902.000        74.997200        3.1396000
       85905.000        75.041400        3.1409800
       85909.000        75.096000        3.1404500
       85913.000        75.146800        3.1399200
       85917.000        75.194400        3.1376500
       85920.000        75.227400        3.1359400
       85924.000        75.269000        3.1334900
       85928.000        75.307500        3.1310400
       85932.000        75.343700        3.1293600
       85935.000        75.369300        3.1281000
       85943.000        75.433100        3.1269500
       85950.000        75.484700        3.1277500
       85958.000        75.540900        3.1302700
       85965.000        75.588000        3.1324800
       85972.000        75.633300        3.1345500
       85980.000        75.683300        3.1369100
       85987.000        75.725400        3.1368100
       85995.000        75.770100        3.1367100
       86002.000        75.807300        3.1366100
       86010.000        75.848100        3.1365000
       86025.000        75.919000        3.1343100
       86040.000        75.982400        3.1321200
       86055.000        76.040800        3.1321000
       86070.000        76.095800        3.1320800
       86085.000        76.147700        3.1325500
       86100.000        76.197500        3.1330300
       86115.000        76.244700        3.1318600
       86130.000        76.288800        3.1306900
       86150.000        76.343900        3.1291400
       86170.000        76.395100        3.1275800
       86190.000        76.443200        3.1265400
       86210.000        76.488700        3.1255000
       86230.000        76.531900        3.1244500
       86250.000        76.572800        3.1234100
       86270.000        76.611800        3.1225800
       86290.000        76.649200        3.1217500
       86330.000        76.719400        3.1201000
       86370.000        76.784400        3.1184400
       86400.000        76.830500        3.1172000
       86440.000        76.888200        3.1145300
       86470.000        76.928800        3.1125400
       86510.000        76.979900        3.1098700
       86550.000        77.028000        3.1072100
       86590.000        77.073300        3.1045400
       86630.000        77.116200        3.1018700
       86670.000        77.156900        3.0992100
       86700.000        77.186000        3.0972100
       86750.000        77.232300        3.0946100
       86800.000        77.276500        3.0920200
       86850.000        77.318500        3.0894200
       86900.000        77.358700        3.0868200
       86970.000        77.411900        3.0831300
       87050.000        77.468900        3.0789200
       87130.000        77.522400        3.0747100
       87200.000        77.566600        3.0710200
       87280.000        77.614600        3.0668100
       87350.000        77.654500        3.0631200
       87420.000        77.692800        3.0594300
       87500.000        77.734800        3.0552200
       87580.000        77.774900        3.0503200
       87650.000        77.808200        3.0460300
       87730.000        77.844400        3.0411400
       87800.000        77.874900        3.0368500
       87900.000        77.916300        3.0310400
       88000.000        77.955400        3.0252300
       88150.000        78.010800        3.0180600
       88300.000        78.063100        3.0109000
       88400.000        78.096300        3.0069800
       88500.000        78.129200        3.0030700
       88650.000        78.176500        2.9960500
       88800.000        78.221300        2.9890300
       88900.000        78.250000        2.9843500
       89000.000        78.278000        2.9796700
       89150.000        78.318500        2.9722300
       89300.000        78.357200        2.9648000
       89400.000        78.382100        2.9598400
       89500.000        78.406600        2.9548800
       89650.000        78.442000        2.9467500
       89800.000        78.475800        2.9386200
       89900.000        78.497600        2.9332000
       90000.000        78.518900        2.9277800
       90200.000        78.559800        2.9165200
       90400.000        78.598500        2.9052600
       90600.000        78.635100        2.8940100
       90800.000        78.669900        2.8827500
       91000.000        78.703000        2.8722100
       91200.000        78.734800        2.8616800
       91350.000        78.757800        2.8537700
       91500.000        78.779900        2.8458700
       91700.000        78.808400        2.8363400
       91900.000        78.836100        2.8268100
       92100.000        78.863000        2.8172800
       92300.000        78.888700        2.8077500
       92500.000        78.913900        2.7987600
       92700.000        78.938400        2.7897700
       93000.000        78.973700        2.7762800
       93300.000        79.007700        2.7637100
       93500.000        79.029900        2.7553300
       93800.000        79.062300        2.7427700
       94000.000        79.083700        2.7343900
       94300.000        79.114700        2.7210300
       94500.000        79.134500        2.7121100
       94800.000        79.163200        2.6987500
       95000.000        79.181800        2.6898400
       95400.000        79.217500        2.6723600
       95800.000        79.251700        2.6548900
       96200.000        79.284500        2.6374100
       96500.000        79.308400        2.6243000
       96900.000        79.339100        2.6068200
       97300.000        79.368100        2.5893500
       97700.000        79.395700        2.5718700
       98000.000        79.415700        2.5587600
       98300.000        79.435000        2.5459600
       98500.000        79.447500        2.5374300
       99000.000        79.477600        2.5161000
       99500.000        79.506200        2.4951900
       99800.000        79.522600        2.4828200
       100000.00        79.533200        2.4745700
