;  Atomic scattering factors for V.
;   
;  Concatenation of data from CXRO <http://www-cxro.lbl.gov>
;  and LLNL <http://www-phys.llnl.gov/V_Div/scattering/asf.html>
;  
;  E (eV) f1 f2
;---------------
       10.000000       -9999.0000        1.0645900
       10.161700       -9999.0000        1.1180500
       10.326100       -9999.0000        1.1741900
       10.493100       -9999.0000        1.2331500
       10.662800       -9999.0000        1.2950700
       10.835300       -9999.0000        1.3601000
       11.010600       -9999.0000        1.4283900
       11.188600       -9999.0000        1.5001200
       11.369600       -9999.0000        1.5725800
       11.553500       -9999.0000        1.6378000
       11.740400       -9999.0000        1.7057200
       11.930300       -9999.0000        1.7764600
       12.123200       -9999.0000        1.8501400
       12.319300       -9999.0000        1.9268700
       12.518600       -9999.0000        1.9957100
       12.721000       -9999.0000        2.0526500
       12.926800       -9999.0000        2.1112100
       13.135900       -9999.0000        2.1714500
       13.348300       -9999.0000        2.2334100
       13.564200       -9999.0000        2.2971300
       13.783600       -9999.0000        2.3616500
       14.006600       -9999.0000        2.4262700
       14.233100       -9999.0000        2.4926500
       14.463300       -9999.0000        2.5587600
       14.697300       -9999.0000        2.5917500
       14.935000       -9999.0000        2.6251700
       15.176500       -9999.0000        2.6590100
       15.422000       -9999.0000        2.7265600
       15.671400       -9999.0000        2.8079000
       15.924900       -9999.0000        2.8916800
       16.182500       -9999.0000        2.9779500
       16.444200       -9999.0000        3.0274800
       16.710200       -9999.0000        3.0731500
       16.980500       -9999.0000        3.1195000
       17.255100       -9999.0000        3.1665400
       17.534200       -9999.0000        3.2143000
       17.817800       -9999.0000        3.2627800
       18.106000       -9999.0000        3.2713800
       18.398900       -9999.0000        3.2576700
       18.696400       -9999.0000        3.2440200
       18.998800       -9999.0000        3.2304200
       19.306100       -9999.0000        3.2168800
       19.618400       -9999.0000        3.2034000
       19.935700       -9999.0000        3.1899800
       20.258200       -9999.0000        3.1615700
       20.585800       -9999.0000        3.0993500
       20.918800       -9999.0000        3.0383500
       21.257100       -9999.0000        2.9785600
       21.600900       -9999.0000        2.9199400
       21.950300       -9999.0000        2.8525200
       22.305300       -9999.0000        2.7751400
       22.666100       -9999.0000        2.7001100
       23.032700       -9999.0000        2.6322000
       23.405300       -9999.0000        2.5660000
       23.783800       -9999.0000        2.5014700
       24.168500       -9999.0000        2.4541000
       24.559400       -9999.0000        2.4114300
       24.956600       -9999.0000        2.3695000
       25.360300       -9999.0000        2.3263600
       25.770500       -9999.0000        2.2843600
       26.187300       -9999.0000        2.2431100
       26.610900       -9999.0000        2.2026100
       27.041300       -9999.0000        2.1628400
       27.478600       -9999.0000        2.1012700
       27.923100       -9999.0000        2.0323200
       28.374700       -9999.0000        1.9656300
       28.833700       -9999.0000        1.9011300
       29.300000        5.3459300        1.8559700
       29.773900        5.2570200        1.8327900
       30.255500        5.1717300        1.8099000
       30.744900        5.0704600        1.7883500
       31.242100        4.9637700        1.8009500
       31.747500        4.8669200        1.8136500
       32.260900        4.7600600        1.8264300
       32.782700        4.6439400        1.8544800
       33.313000        4.5327800        1.9024300
       33.851800        4.4266000        1.9516200
       34.399300        4.3174400        2.0020800
       34.955700        4.2010500        2.0538400
       35.521100        4.0558900        2.1086000
       36.095600        3.9024900        2.2093400
       36.679400        3.7654900        2.3148900
       37.272700        3.6204700        2.4254900
       37.875500        3.4354300        2.5413600
       38.488200        3.2279600        2.7202700
       39.110700        3.0396000        2.9482500
       39.743200        2.8462000        3.1953500
       40.386100        2.6210500        3.5311800
       41.039300        2.4516700        3.9874100
       41.703100        2.4172400        4.5025900
       42.377600        2.4618800        4.9938300
       43.063000        2.6190100        5.5376200
       43.759500        2.8830500        5.9805500
       44.467300        3.1639000        6.3708200
       45.186500        3.4890000        6.7287200
       45.917400        3.8253300        7.0199100
       46.660000        4.1815300        7.3237000
       47.414700        4.6360800        7.5950200
       48.181600        5.1531200        7.7633600
       48.960900        5.6176400        7.7437800
       49.752800        5.9879500        7.7242600
       50.557600        6.3232900        7.7047900
       51.375300        6.6421600        7.6853700
       52.206200        6.9538300        7.6558700
       53.050600        7.2571000        7.6196400
       53.908700        7.5620200        7.5835700
       54.780600        7.9057700        7.5476800
       55.666700        8.2657900        7.3853600
       56.567000        8.5468800        7.1859200
       57.482000        8.7704500        6.9918500
       58.411700        8.9662100        6.8030300
       59.356400        9.1553300        6.6193100
       60.316500        9.3200500        6.3991900
       61.292100        9.4323600        6.1862400
       62.283400        9.5117000        5.9803900
       63.290800        9.5578000        5.8047900
       64.314500        9.5966300        5.6576000
       65.354700        9.6338100        5.5230900
       66.411800        9.6693900        5.4067900
       67.485900        9.7103000        5.2929300
       68.577500        9.7474000        5.1814800
       69.686700        9.7800800        5.0723700
       70.813800        9.8075900        4.9655600
       71.959100        9.8293800        4.8610000
       73.123000        9.8456400        4.7586400
       74.305700        9.8538000        4.6536100
       75.507600        9.8488300        4.5500600
       76.728900        9.8159900        4.4488200
       77.969900        9.7618000        4.3779100
       79.231000        9.7216100        4.3542600
       80.512500        9.7032900        4.3307400
       81.814700        9.6925600        4.3073400
       83.138000        9.6853900        4.2840700
       84.482700        9.6791700        4.2609300
       85.849100        9.6720500        4.2379000
       87.237700        9.6501900        4.2150100
       88.648700        9.6245800        4.2194600
       90.082500        9.6189400        4.2345500
       91.539500        9.6220900        4.2496900
       93.020100        9.6311200        4.2648800
       94.524600        9.6446000        4.2801300
       96.053500        9.6616500        4.2954300
       97.607100        9.6816500        4.3107900
       99.185800        9.7041300        4.3262100
       100.79000        9.7286600        4.3416700
       102.42000        9.7548100        4.3572000
       104.07700        9.7822100        4.3727700
       105.76000        9.8068500        4.3884100
       107.47100        9.8319600        4.4122100
       109.20900        9.8649800        4.4399300
       110.97500        9.9032200        4.4678300
       112.77000        9.9459800        4.4959000
       114.59400        9.9933300        4.5241500
       116.44800        10.045900        4.5525800
       118.33100        10.104900        4.5811800
       120.24500        10.180500        4.6076600
       122.19000        10.258500        4.6058000
       124.16600        10.319700        4.6039400
       126.17500        10.379100        4.6020800
       128.21500        10.436700        4.6002300
       130.28900        10.493000        4.5983700
       132.39700        10.548700        4.5965200
       134.53800        10.604000        4.5946600
       136.71400        10.659600        4.5927500
       138.92500        10.715000        4.5896800
       141.17200        10.769700        4.5866200
       143.45600        10.824400        4.5835600
       145.77600        10.879300        4.5805000
       148.13400        10.934400        4.5774400
       150.53000        10.989900        4.5743800
       152.96400        11.046200        4.5713300
       155.43900        11.103400        4.5682800
       157.95300        11.161800        4.5652300
       160.50700        11.222200        4.5621800
       163.10300        11.285000        4.5591400
       165.74200        11.358600        4.5560900
       168.42200        11.433900        4.5322200
       171.14600        11.495400        4.5080000
       173.91500        11.554500        4.4839100
       176.72700        11.611500        4.4599600
       179.58600        11.667000        4.4361200
       182.49100        11.721600        4.4124200
       185.44200        11.775700        4.3888400
       188.44200        11.830200        4.3653900
       191.48900        11.886700        4.3420700
       194.58700        11.949600        4.3146000
       197.73400        12.009600        4.2724000
       200.93200        12.057800        4.2305900
       204.18200        12.102500        4.1892000
       207.48500        12.143900        4.1482100
       210.84000        12.182500        4.1076200
       214.25100        12.218500        4.0674400
       217.71600        12.252400        4.0276400
       221.23700        12.284300        3.9882300
       224.81600        12.314300        3.9492100
       228.45200        12.342800        3.9105700
       232.14700        12.370000        3.8723100
       235.90200        12.396700        3.8344200
       239.71700        12.424500        3.7969100
       243.59500        12.451100        3.7503900
       247.53500        12.470800        3.7042500
       251.53800        12.486600        3.6586600
       255.60700        12.499200        3.6136500
       259.74100        12.508800        3.5691800
       263.94200        12.515700        3.5252600
       268.21100        12.520000        3.4818800
       272.54900        12.521700        3.4390400
       276.95700        12.521100        3.3967200
       281.43700        12.518300        3.3549200
       285.98900        12.513800        3.3136500
       290.61500        12.509300        3.2728700
       295.31500        12.504100        3.2248300
       300.09200        12.490900        3.1739400
       304.94500        12.470600        3.1238500
       309.87800        12.445100        3.0745400
       314.89000        12.414600        3.0260200
       319.98300        12.379000        2.9782600
       325.15800        12.338300        2.9312600
       330.41800        12.292500        2.8850000
       335.76200        12.241200        2.8394700
       341.19200        12.184400        2.7946600
       346.71100        12.121800        2.7505600
       352.31900        12.053700        2.7071500
       358.01700        11.979700        2.6617700
       363.80800        11.896300        2.6149800
       369.69200        11.802600        2.5690000
       375.67200        11.698900        2.5238400
       381.74800        11.584400        2.4794700
       387.92200        11.458100        2.4358800
       394.19700        11.318900        2.3930600
       400.57300        11.165200        2.3509900
       407.05200        10.995500        2.3096600
       413.63500        10.808800        2.2690600
       420.32600        10.600400        2.2216300
       427.12400        10.360800        2.1746400
       434.03200        10.087600        2.1286400
       441.05200        9.7745200        2.0836200
       448.18600        9.4117500        2.0395500
       455.43500        8.9864000        1.9977000
       462.80200        8.4833600        1.9643600
       470.28700        7.8784200        1.9315800
       477.89400        7.1230900        1.8993400
       485.62300        6.1336100        1.8679400
       493.47800        4.7351600        1.8403900
       501.45900        2.4384700        1.8132600
       509.57000       -3.7236100        1.7865300
       512.00000       -18.091400        1.7786700
       512.20000       -18.074900        15.871700
       517.81200       0.32106900        15.662800
       526.18700        4.5901500        15.360000
       534.69800        6.8592100        15.063300
       543.34600        8.4119400        14.772200
       552.13400        9.5829500        14.486600
       561.06500        10.490800        14.191500
       570.13900        11.128800        13.924700
       579.36100        11.636900        13.865800
       588.73200        12.177300        13.861000
       598.25400        12.720100        13.890900
       607.93000        13.281400        13.921000
       617.76300        13.857100        13.951100
       627.75500        14.488400        13.973600
       637.90800        15.166400        13.900900
       648.22600        15.829000        13.689300
       658.71100        16.380800        13.390900
       669.36500        16.812800        13.099100
       680.19100        17.188600        12.842200
       691.19300        17.547800        12.612200
       702.37200        17.896100        12.391400
       713.73300        18.236400        12.155100
       725.27700        18.547100        11.910100
       737.00800        18.830000        11.669700
       748.92800        19.094100        11.433900
       761.04200        19.341800        11.202700
       773.35100        19.576200        10.975400
       785.85900        19.798700        10.747200
       798.57000        20.004900        10.519400
       811.48600        20.195500        10.296500
       824.61100        20.374300        10.078600
       837.94900        20.543100        9.8654300
       851.50200        20.702700        9.6554000
       865.27400        20.853000        9.4485400
       879.26900        20.994200        9.2450100
       893.49100        21.126800        9.0457800
       907.94300        21.252400        8.8508600
       922.62800        21.373700        8.6601500
       937.55100        21.489400        8.4675200
       952.71500        21.595300        8.2776400
       968.12400        21.693700        8.0907100
       983.78300        21.785000        7.9079600
       999.69500        21.870500        7.7293500
       1015.8600        21.950800        7.5548100
       1032.2900        22.027200        7.3841400
       1048.9900        22.100400        7.2146000
       1065.9600        22.167500        7.0460400
       1083.2000        22.227900        6.8814100
       1100.7200        22.283600        6.7206300
       1118.5200        22.335100        6.5636100
       1136.6100        22.382700        6.4102800
       1155.0000        22.426800        6.2605100
       1173.6800        22.467600        6.1142200
       1192.6600        22.505400        5.9714000
       1211.9500        22.540700        5.8318800
       1231.5500        22.574000        5.6956000
       1251.4700        22.605500        5.5612500
       1271.7200        22.634400        5.4288100
       1292.2900        22.660200        5.2979900
       1313.1900        22.682500        5.1702500
       1334.4300        22.702400        5.0455700
       1356.0100        22.719900        4.9238800
       1377.9400        22.735500        4.8051700
       1400.2300        22.749300        4.6892900
       1422.8800        22.761500        4.5761400
       1445.8900        22.772600        4.4658800
       1469.2800        22.782900        4.3577200
       1493.0400        22.792800        4.2513200
       1517.1900        22.801300        4.1445200
       1541.7300        22.805800        4.0400400
       1566.6700        22.808400        3.9382400
       1592.0100        22.809500        3.8388700
       1617.7600        22.809000        3.7420200
       1643.9200        22.807200        3.6476900
       1670.5100        22.804400        3.5556500
       1697.5300        22.800600        3.4659500
       1724.9900        22.796100        3.3785600
       1752.8900        22.791200        3.2921500
       1781.2400        22.784700        3.2075500
       1810.0500        22.776900        3.1248200
       1839.3200        22.768000        3.0442000
       1869.0700        22.758100        2.9656300
       1899.3000        22.747400        2.8890600
       1930.0200        22.735900        2.8144800
       1961.2400        22.723700        2.7418500
       1992.9600        22.710800        2.6711800
       2025.2000        22.697600        2.6030400
       2057.9500        22.684700        2.5354600
       2091.2400        22.670800        2.4693500
       2125.0600        22.656200        2.4049100
       2159.4300        22.641000        2.3420600
       2194.3600        22.625300        2.2807800
       2229.8500        22.609100        2.2210000
       2265.9200        22.592400        2.1627300
       2302.5700        22.575400        2.1059200
       2339.8100        22.557900        2.0505300
       2377.6600        22.540000        1.9965100
       2416.1100        22.521700        1.9438600
       2455.1900        22.503100        1.8925600
       2494.9000        22.484100        1.8425400
       2535.2600        22.464700        1.7937800
       2576.2600        22.445000        1.7462700
       2617.9300        22.424900        1.6999800
       2660.2700        22.404500        1.6548500
       2703.3000        22.383800        1.6108600
       2747.0300        22.362700        1.5680200
       2791.4600        22.341300        1.5262700
       2836.6100        22.319500        1.4855900
       2882.4900        22.297400        1.4459500
       2929.1100        22.274900        1.4073100
       2976.4800        22.251900        1.3696800
       3024.6300        22.228600        1.3330300
       3073.5500        22.204800        1.2973000
       3123.2600        22.180500        1.2625000
       3173.7800        22.155800        1.2286200
       3225.1100        22.130600        1.1956100
       3277.2700        22.104800        1.1634600
       3330.2800        22.078300        1.1320900
       3384.1500        22.051200        1.1015800
       3438.8800        22.023500        1.0718600
       3494.5000        21.994900        1.0428900
       3551.0200        21.965500        1.0146700
       3608.4600        21.935200       0.98719600
       3666.8200        21.903800       0.96043900
       3726.1300        21.871400       0.93437300
       3786.4000        21.837700       0.90898000
       3847.6400        21.802600       0.88424400
       3909.8700        21.765900       0.86015100
       3973.1100        21.727500       0.83670100
       4037.3800        21.687200       0.81382400
       4102.6800        21.644700       0.79159100
       4169.0300        21.599700       0.76988400
       4236.4600        21.551700       0.74876200
       4304.9800        21.500500       0.72821500
       4374.6200        21.445500       0.70815800
       4445.3700        21.385900       0.68864500
       4517.2700        21.321000       0.66961500
       4590.3300        21.249700       0.65112000
       4664.5800        21.170600       0.63305600
       4740.0300        21.081900       0.61548800
       4816.6900        20.981100       0.59840200
       4894.6000        20.864500       0.58170900
       4973.7700        20.726900       0.56546400
       5054.2100        20.559700       0.54964200
       5135.9600        20.348400       0.53423100
       5219.0300        20.065200       0.51922000
       5303.4400        19.644600       0.50459100
       5389.2200        18.858800       0.49034100
       5465.0000        11.490700       0.47826800
       5465.2000        11.491300        4.0098100
       5476.3900        16.821800        3.9981300
       5564.9700        19.355500        3.9076900
       5654.9800        20.133700        3.8186600
       5746.4400        20.618500        3.7307300
       5839.3900        20.973300        3.6440500
       5933.8300        21.253200        3.5586300
       6029.8100        21.483800        3.4745000
       6127.3300        21.679300        3.3916200
       6226.4400        21.848300        3.3101000
       6327.1500        21.996500        3.2299200
       6429.4800        22.127700        3.1511300
       6533.4800        22.245000        3.0736700
       6639.1500        22.350400        2.9975600
       6746.5400        22.445600        2.9229100
       6855.6500        22.532100        2.8496900
       6966.5400        22.610800        2.7777800
       7079.2200        22.682500        2.7072800
       7193.7200        22.748200        2.6382100
       7310.0700        22.808300        2.5704700
       7428.3100        22.863400        2.5041700
       7548.4500        22.914000        2.4392500
       7670.5400        22.960400        2.3756500
       7794.6100        23.003100        2.3134600
       7920.6800        23.042400        2.2525700
       8048.7900        23.078400        2.1930000
       8178.9800        23.111500        2.1347800
       8311.2600        23.141800        2.0778400
       8445.6900        23.169700        2.0221600
       8582.2900        23.195100        1.9677900
       8721.1100        23.218400        1.9146500
       8862.1600        23.239700        1.8627500
       9005.5000        23.259100        1.8121500
       9151.1600        23.276700        1.7626200
       9299.1700        23.292700        1.7143400
       9449.5800        23.307200        1.6671900
       9602.4200        23.320200        1.6212100
       9757.7300        23.331900        1.5763800
       9915.5500        23.342300        1.5326500
       10075.900        23.351700        1.4899700
       10238.900        23.359900        1.4483500
       10404.500        23.367000        1.4077700
       10572.800        23.373300        1.3682200
       10743.800        23.378600        1.3296700
       10917.600        23.383100        1.2921000
       11094.200        23.386800        1.2555000
       11273.600        23.389800        1.2198400
       11455.900        23.392100        1.1851100
       11641.200        23.393800        1.1512800
       11829.500        23.394900        1.1183400
       12020.800        23.395400        1.0862600
       12215.300        23.395400        1.0550300
       12412.800        23.394900        1.0246300
       12613.600        23.394000       0.99503800
       12817.600        23.392700       0.96624000
       13025.000        23.391000       0.93821400
       13235.600        23.388900       0.91094600
       13449.700        23.386500       0.88441600
       13667.200        23.383800       0.85860600
       13888.300        23.380800       0.83350000
       14112.900        23.377500       0.80908100
       14341.200        23.374000       0.78533400
       14573.100        23.370300       0.76223900
       14808.900        23.366400       0.73978400
       15048.400        23.362300       0.71795100
       15291.800        23.358000       0.69672600
       15539.100        23.353600       0.67609200
       15790.400        23.349000       0.65603600
       16045.800        23.344400       0.63654200
       16305.400        23.339600       0.61759600
       16569.100        23.334700       0.59918600
       16837.100        23.329700       0.58129500
       17109.400        23.324700       0.56391200
       17386.100        23.319500       0.54702300
       17667.400        23.314400       0.53061600
       17953.100        23.309100       0.51467700
       18243.500        23.303900       0.49919400
       18538.600        23.298600       0.48415500
       18838.400        23.293300       0.46954900
       19143.100        23.288000       0.45536400
       19452.700        23.282600       0.44158900
       19767.400        23.277300       0.42821200
       20087.100        23.272000       0.41522400
       20412.000        23.266600       0.40261200
       20742.100        23.261300       0.39036900
       21077.600        23.256000       0.37848100
       21418.500        23.250800       0.36694200
       21765.000        23.245500       0.35574100
       22117.000        23.240300       0.34486800
       22474.700        23.235100       0.33431500
       22838.200        23.230000       0.32407200
       23207.600        23.224900       0.31413100
       23583.000        23.219800       0.30448400
       23964.400        23.214800       0.29512300
       24352.000        23.209800       0.28603800
       24745.900        23.204900       0.27722400
       25146.200        23.200000       0.26867200
       25552.900        23.195200       0.26037400
       25966.200        23.190400       0.25232400
       26386.100        23.185700       0.24451300
       26812.900        23.181100       0.23693700
       27246.600        23.176500       0.22958800
       27687.300        23.172000       0.22245900
       28135.100        23.167500       0.21554400
       28590.200        23.163100       0.20883700
       29052.600        23.158800       0.20233200
       29522.500        23.155100       0.19602300
       30000.000        23.148500       0.18990500
       30400.000        23.141700       0.18392500
       30800.000        23.138400       0.17920100
       31200.000        23.135300       0.17465600
       31500.000        23.132900       0.17136100
       31900.000        23.129900       0.16711000
       32300.000        23.127000       0.16301600
       32600.000        23.124800       0.16004300
       33000.000        23.122000       0.15620400
       33400.000        23.119200       0.15248800
       33800.000        23.116500       0.14890200
       34100.000        23.114500       0.14629500
       34500.000        23.111900       0.14292500
       34900.000        23.109500       0.13966900
       35300.000        23.107000       0.13650900
       35700.000        23.104600       0.13345100
       36030.000        23.102600       0.13100400
       36500.000        23.099900       0.12763300
       37000.000        23.097100       0.12418800
       37500.000        23.094400       0.12088000
       38000.000        23.091700       0.11770200
       38500.000        23.089200       0.11460600
       39000.000        23.086700       0.11163000
       39500.000        23.084300       0.10876800
       40000.000        23.081900       0.10601300
       40400.000        23.080100       0.10387000
       40800.000        23.078300       0.10179000
       41100.000        23.076900       0.10027100
       41500.000        23.075100      0.098296900
       41900.000        23.073400      0.096380200
       42300.000        23.071800      0.094518500
       43000.000        23.068800      0.091386900
       43800.000        23.065700      0.087982200
       44500.000        23.063000      0.085155400
       45300.000        23.060100      0.082083900
       46000.000        23.057600      0.079525300
       46500.000        23.055900      0.077769500
       47000.000        23.054200      0.076070600
       47500.000        23.052600      0.074426300
       48000.000        23.051000      0.072834100
       48500.000        23.049400      0.071292000
       49000.000        23.047900      0.069797900
       49500.000        23.046400      0.068349700
       50000.000        23.044900      0.066945800
       50500.000        23.043500      0.065577000
       51000.000        23.042200      0.064249200
       51500.000        23.040800      0.062960900
       52000.000        23.039400      0.061710500
       52500.000        23.038200      0.060496600
       53000.000        23.036900      0.059317700
       53500.000        23.035600      0.058172500
       54000.000        23.034400      0.057059800
       54500.000        23.033200      0.055978400
       55000.000        23.032100      0.054927000
       56000.000        23.029800      0.052902200
       56800.000        23.028100      0.051360900
       57530.000        23.026500      0.050011800
       58000.000        23.025500      0.049170700
       58500.000        23.024500      0.048298700
       59540.000        23.022500      0.046556800
       59800.000        23.022000      0.046135900
       60000.000        23.021600      0.045815900
       60800.000        23.020200      0.044564400
       61500.000        23.019000      0.043510300
       62300.000        23.017500      0.042350200
       63000.000        23.016300      0.041372200
       64000.000        23.014700      0.040032000
       65000.000        23.013200      0.038755000
       65900.000        23.011800      0.037654100
       66830.000        23.010300      0.036564300
       67400.000        23.009500      0.035919300
       68000.000        23.008700      0.035258300
       69000.000        23.007300      0.034195800
       70000.000        23.006000      0.033180100
       71000.000        23.004800      0.032205000
       72000.000        23.003600      0.031271600
       72800.000        23.002700      0.030553300
       73500.000        23.001900      0.029944600
       74200.000        23.001000      0.029353700
       74960.000        23.000100      0.028731300
       75500.000        22.999600      0.028300900
       76000.000        22.999000      0.027910800
       77110.000        22.997900      0.027072600
       77900.000        22.997100      0.026498500
       78600.000        22.996400      0.026004700
       79300.000        22.995700      0.025524300
       80000.000        22.995000      0.025056900
       80800.000        22.994400      0.024536500
       81500.000        22.993800      0.024094200
       82300.000        22.993100      0.023602800
       83000.000        22.992500      0.023184900
       84000.000        22.991600      0.022606600
       85000.000        22.990800      0.022049300
       86500.000        22.989600      0.021250600
       88000.000        22.988500      0.020493800
       89000.000        22.987800      0.020011100
       90000.000        22.987000      0.019545100
       91500.000        22.986100      0.018874200
       93000.000        22.985100      0.018236800
       94000.000        22.984500      0.017829300
       95000.000        22.983800      0.017435100
       96500.000        22.983000      0.016867400
       98000.000        22.982100      0.016326500
       99000.000        22.981600      0.015980000
       99500.000        22.981300      0.015810800
       100000.00        22.981000      0.015644300
