;  Atomic scattering factors for W.
;   
;  Concatenation of data from CXRO <http://www-cxro.lbl.gov>
;  and LLNL <http://www-phys.llnl.gov/V_Div/scattering/asf.html>
;  
;  E (eV) f1 f2
;---------------
10.0000	-9999.	1.92551	
10.1617	-9999.	2.00949	
10.3261	-9999.	2.09714	
10.4931	-9999.	2.18428	
10.6628	-9999.	2.26758	
10.8353	-9999.	2.35405	
11.0105	-9999.	2.44381	
11.1886	-9999.	2.53700	
11.3696	-9999.	2.63375	
11.5535	-9999.	2.73418	
11.7404	-9999.	2.83098	
11.9303	-9999.	2.91021	
12.1232	-9999.	2.99166	
12.3193	-9999.	3.07538	
12.5186	-9999.	3.16145	
12.7210	-9999.	3.24993	
12.9268	-9999.	3.34088	
13.1359	-9999.	3.43438	
13.3483	-9999.	3.53050	
13.5642	-9999.	3.62930	
13.7836	-9999.	3.73087	
14.0066	-9999.	3.83529	
14.2331	-9999.	3.94262	
14.4633	-9999.	4.05296	
14.6972	-9999.	4.16638	
14.9350	-9999.	4.28299	
15.1765	-9999.	4.40285	
15.4220	-9999.	4.52607	
15.6714	-9999.	4.62574	
15.9249	-9999.	4.72544	
16.1825	-9999.	4.82729	
16.4442	-9999.	4.93134	
16.7102	-9999.	5.03762	
16.9805	-9999.	5.13464	
17.2551	-9999.	5.19247	
17.5342	-9999.	5.25095	
17.8178	-9999.	5.31009	
18.1060	-9999.	5.36990	
18.3988	-9999.	5.43038	
18.6964	-9999.	5.49155	
18.9988	-9999.	5.55246	
19.3061	4.00129	5.58231	
19.6184	4.12288	5.61231	
19.9357	4.24466	5.64248	
20.2581	4.37043	5.67280	
20.5858	4.50805	5.70330	
20.9187	4.67440	5.70668	
21.2571	4.82120	5.66079	
21.6009	4.93090	5.61526	
21.9503	5.02831	5.57010	
22.3053	5.09799	5.52580	
22.6661	5.16752	5.51456	
23.0327	5.25484	5.50333	
23.4052	5.34758	5.49213	
23.7838	5.48845	5.48096	
24.1685	5.63539	5.39196	
24.5594	5.72448	5.26256	
24.9566	5.77445	5.13626	
25.3602	5.78170	5.01653	
25.7704	5.77549	4.93120	
26.1872	5.77356	4.84732	
26.6108	5.76149	4.76486	
27.0412	5.73414	4.68381	
27.4786	5.69320	4.61317	
27.9230	5.65137	4.55793	
28.3747	5.60969	4.50335	
28.8336	5.57575	4.44943	
29.3000	5.54106	4.37495	
29.7739	5.47773	4.27388	
30.2554	5.38257	4.17515	
30.7448	5.25645	4.07870	
31.2421	5.09956	3.99287	
31.7474	4.92262	3.92770	
32.2609	4.72383	3.86360	
32.7827	4.48464	3.81322	
33.3129	4.22155	3.79419	
33.8517	3.93916	3.77526	
34.3992	3.59282	3.75642	
34.9556	3.16812	3.81788	
35.5210	2.73204	3.95432	
36.0955	2.27710	4.09564	
36.6793	1.66183	4.24200	
37.2726	0.928081	4.77751	
37.8754	0.337619	5.47293	
38.4880	-0.147289	6.34746	
39.1106	-0.475361	7.36176	
39.7431	-0.835430	8.53814	
40.3860	-0.695614	10.4191	
41.0392	0.738605	11.8208	
41.7029	2.14221	12.0453	
42.3774	3.20822	12.2742	
43.0629	4.22882	11.8738	
43.7594	4.78000	11.3822	
44.4671	4.86737	10.5092	
45.1864	4.33318	10.3667	
45.9172	3.87966	10.3651	
46.6599	3.28163	10.7655	
47.4146	2.83935	11.5068	
48.1815	2.61814	12.5118	
48.9608	2.69519	13.7127	
49.7527	3.23926	15.0289	
50.5574	4.24111	16.2240	
51.3751	5.56617	16.8755	
52.2061	6.91800	17.2529	
53.0505	8.11956	17.1944	
53.9085	9.17238	17.1361	
54.7804	10.2643	16.9066	
55.6665	11.1935	16.4145	
56.5668	11.8679	15.9366	
57.4817	12.4461	15.4727	
58.4115	12.9444	15.0223	
59.3562	13.3794	14.5850	
60.3163	13.7626	14.1605	
61.2918	14.1031	13.7483	
62.2832	14.4082	13.3481	
63.2906	14.6846	12.9595	
64.3142	14.9557	12.5823	
65.3545	15.2155	12.1777	
66.4115	15.4179	11.7405	
67.4857	15.5688	11.3191	
68.5772	15.6849	10.9127	
69.6864	15.7730	10.5209	
70.8135	15.8431	10.1432	
71.9588	15.9026	9.77676	
73.1227	15.9371	9.36244	
74.3054	15.9129	8.96567	
75.5072	15.8508	8.58572	
76.7285	15.7548	8.22187	
77.9695	15.6253	7.87344	
79.2306	15.4599	7.53977	
80.5121	15.2219	7.22025	
81.8143	14.9401	7.01668	
83.1376	14.7189	6.83406	
84.4823	14.4847	6.65620	
85.8487	14.1900	6.48297	
87.2373	13.8528	6.41944	
88.6483	13.5949	6.39767	
90.0821	13.3437	6.37597	
91.5391	13.0514	6.35435	
93.0197	12.7481	6.46132	
94.5242	12.5343	6.57744	
96.0530	12.3424	6.69565	
97.6066	12.1603	6.81598	
99.1853	11.9869	6.95704	
100.790	11.8412	7.10582	
102.420	11.7088	7.25779	
104.076	11.5874	7.41301	
105.760	11.4748	7.57154	
107.470	11.3687	7.73347	
109.208	11.2650	7.89886	
110.975	11.1605	8.08209	
112.770	11.0730	8.27812	
114.594	10.9983	8.47891	
116.447	10.9335	8.68457	
118.331	10.8776	8.89521	
120.245	10.8307	9.11096	
122.189	10.7924	9.33195	
124.166	10.7632	9.55830	
126.174	10.7436	9.79013	
128.215	10.7361	10.0276	
130.288	10.7438	10.2622	
132.396	10.7540	10.4914	
134.537	10.7655	10.7258	
136.713	10.7827	10.9654	
138.924	10.8062	11.2103	
141.171	10.8370	11.4608	
143.455	10.8760	11.7168	
145.775	10.9245	11.9785	
148.133	10.9839	12.2461	
150.529	11.0586	12.5196	
152.963	11.1540	12.7855	
155.438	11.2502	13.0416	
157.952	11.3488	13.3029	
160.506	11.4571	13.5694	
163.102	11.5855	13.8412	
165.740	11.7297	14.0867	
168.421	11.8630	14.3324	
171.145	12.0026	14.5824	
173.913	12.1614	14.8368	
176.726	12.3323	15.0535	
179.585	12.4794	15.2684	
182.489	12.6209	15.4864	
185.441	12.7536	15.7076	
188.440	12.8790	15.9487	
191.488	13.0221	16.2006	
194.585	13.1736	16.4564	
197.733	13.3332	16.7162	
200.931	13.5019	16.9801	
204.181	13.6845	17.2482	
207.483	13.8791	17.5039	
210.839	14.0698	17.7602	
214.249	14.2646	18.0202	
217.714	14.4653	18.2840	
221.236	14.6727	18.5517	
224.814	14.8879	18.8233	
228.450	15.1117	19.0988	
232.145	15.3452	19.3784	
235.900	15.5894	19.6622	
239.716	15.8455	19.9500	
243.593	16.1154	20.2421	
247.533	16.4008	20.5384	
251.536	16.7046	20.8391	
255.605	17.0307	21.1442	
259.739	17.3853	21.4538	
263.940	17.7909	21.7678	
268.209	18.2760	22.0865	
272.547	18.7921	22.1984	
276.955	19.2212	22.3010	
281.435	19.6185	22.4041	
285.987	19.9988	22.5077	
290.612	20.3687	22.6118	
295.313	20.7328	22.7163	
300.089	21.0982	22.8214	
304.943	21.4711	22.9157	
309.875	21.8288	22.9921	
314.887	22.1749	23.0687	
319.980	22.5144	23.1456	
325.156	22.8494	23.2227	
330.415	23.1811	23.3002	
335.759	23.5117	23.3778	
341.190	23.8444	23.4485	
346.708	24.1660	23.5139	
352.316	24.4799	23.5795	
358.014	24.7860	23.6452	
363.805	25.0772	23.7111	
369.689	25.3425	23.7820	
375.669	25.6139	23.9201	
381.745	25.9156	24.0590	
387.919	26.2331	24.1987	
394.193	26.5627	24.3392	
400.569	26.9032	24.4806	
407.048	27.2537	24.6228	
413.632	27.6111	24.7657	
420.322	27.9811	24.9265	
427.120	28.3782	25.0905	
434.029	28.8020	25.2555	
441.049	29.2635	25.4217	
448.182	29.7857	25.5890	
455.431	30.3544	25.6513	
462.797	30.9276	25.6348	
470.283	31.4258	25.5791	
477.889	31.8900	25.5228	
485.619	32.3372	25.4664	
493.473	32.7731	25.4104	
501.455	33.2037	25.3555	
509.565	33.6348	25.2998	
517.807	34.0772	25.2376	
526.182	34.5210	25.1530	
534.693	34.9662	25.0250	
543.341	35.3629	24.8763	
552.129	35.7322	24.7302	
561.060	36.0735	24.5716	
570.134	36.3407	24.4232	
579.356	36.6067	24.3858	
588.726	36.8999	24.3779	
598.248	37.2461	24.3889	
607.925	37.6284	24.3999	
617.757	38.0499	24.4107	
627.749	38.5373	24.4150	
637.902	39.0700	24.3390	
648.220	39.6431	24.1450	
658.704	40.0977	23.8749	
669.358	40.4841	23.6077	
680.185	40.8126	23.3804	
691.186	41.1576	23.1836	
702.366	41.5200	22.9923	
713.726	41.9010	22.7619	
725.270	42.2408	22.5057	
737.000	42.5579	22.2525	
748.921	42.8606	22.0019	
761.034	43.1546	21.7535	
773.343	43.4424	21.5028	
785.851	43.7290	21.2376	
798.562	43.9879	20.9614	
811.478	44.2286	20.6886	
824.603	44.4557	20.4192	
837.940	44.6721	20.1532	
851.493	44.8784	19.8867	
865.265	45.0757	19.6195	
879.260	45.2583	19.3523	
893.482	45.4295	19.0886	
907.933	45.5916	18.8282	
922.618	45.7471	18.5711	
937.541	45.8934	18.3085	
952.705	46.0288	18.0471	
968.114	46.1513	17.7871	
983.772	46.2639	17.5307	
999.684	46.3695	17.2765	
1015.85	46.4694	17.0243	
1032.28	46.5580	16.7608	
1048.98	46.6332	16.4973	
1065.95	46.6901	16.2339	
1083.19	46.7320	15.9743	
1100.71	46.7604	15.7187	
1118.51	46.7756	15.4670	
1136.60	46.7779	15.2189	
1154.98	46.7672	14.9747	
1173.67	46.7436	14.7343	
1192.65	46.7071	14.4976	
1211.94	46.6580	14.2647	
1231.54	46.5978	14.0353	
1251.46	46.5245	13.8026	
1271.70	46.4384	13.5662	
1292.27	46.3238	13.3245	
1313.17	46.1841	13.0874	
1334.41	46.0204	12.8543	
1355.99	45.8309	12.6248	
1377.93	45.6140	12.3993	
1400.21	45.3675	12.1776	
1422.86	45.0883	11.9599	
1445.87	44.7730	11.7460	
1469.26	44.4180	11.5351	
1493.02	44.0159	11.3266	
1517.17	43.5577	11.1181	
1541.71	43.0326	10.9128	
1566.65	42.4282	10.7113	
1591.99	41.7273	10.5132	
1617.74	40.9055	10.3185	
1643.90	39.9275	10.1275	
1670.49	38.7390	9.93941	
1697.51	37.2501	9.75480	
1724.97	35.2987	9.57377	
1752.87	32.5247	9.39200	
1781.22	27.8205	9.21280	
1809.10	-5.97426	9.04256	
1809.30	-5.97629	27.4052	
1810.03	6.32169	27.3945	
1839.30	25.3790	26.9707	
1869.05	19.7140	26.5534	
1871.50	7.04788	26.5197	
1871.70	7.08657	39.3036	
1899.28	32.6160	38.4902	
1930.	37.7974	37.6174	
1961.22	41.1784	36.7643	
1992.94	43.7143	35.9303	
2000.	44.1954	35.7489	
2026.	45.7756	35.1030	
2052.	47.1073	34.4675	
2079.	48.2741	33.8286	
2106.	49.2578	33.2094	
2134.	50.1068	32.5882	
2161.	50.7671	32.0063	
2190.	51.2909	31.4014	
2218.	51.5653	30.8356	
2247.	51.4224	30.2673	
2277.	48.9035	29.6974	
2280.90	43.2632	29.6246	
2281.10	43.2704	34.5246	
2306.	52.5275	33.9369	
2337.	54.4424	33.2277	
2367.	55.6539	32.5634	
2398.	56.6138	31.9010	
2429.	57.3832	31.2594	
2461.	58.0213	30.6189	
2493.	58.5109	30.0011	
2526.	58.8275	29.3837	
2559.	58.6950	28.7879	
2574.80	55.8033	28.5096	
2575.	55.8065	30.4546	
2592.	59.2502	30.1542	
2626.	60.3896	29.5680	
2660.	61.1071	29.0016	
2695.	61.6739	28.4383	
2730.	62.1165	27.8922	
2766.	62.4375	27.3487	
2802.	62.4707	26.8229	
2819.50	60.7116	26.5733	
2819.70	60.7136	27.7619	
2839.	62.9230	27.5031	
2876.	63.7200	27.0186	
2914.	64.2912	26.5335	
2952.	64.7689	26.0625	
2990.	65.1894	25.6028	
3029.	65.5776	25.1449	
3069.	65.9400	24.6872	
3109.	66.2712	24.2412	
3150.	66.5826	23.7971	
3191.	66.8702	23.3661	
3232.	67.1358	22.9455	
3275.	67.3933	22.5181	
3317.	67.6264	22.1119	
3361.	67.8527	21.6986	
3405.	68.0625	21.2974	
3449.	68.2569	20.9068	
3494.	68.4415	20.5202	
3540.	68.6165	20.1348	
3586.	68.7781	19.7614	
3633.	68.9312	19.3912	
3680.	69.0729	19.0315	
3729.	69.2095	18.6681	
3777.	69.3333	18.3220	
3827.	69.4520	17.9724	
3877.	69.5614	17.6336	
3927.	69.6626	17.3048	
3979.	69.7592	16.9725	
4031.	69.8476	16.6503	
4083.	69.9285	16.3379	
4137.	70.0053	16.0230	
4191.	70.0751	15.7178	
4245.	70.1386	15.4219	
4301.	70.1982	15.1240	
4357.	70.2518	14.8352	
4414.	70.3006	14.5502	
4472.	70.3450	14.2691	
4530.	70.3842	13.9965	
4589.	70.4192	13.7275	
4649.	70.4501	13.4624	
4710.	70.4772	13.2011	
4771.	70.5000	12.9478	
4834.	70.5195	12.6942	
4897.	70.5349	12.4483	
4961.	70.5469	12.2062	
5026.	70.5555	11.9681	
5091.	70.5609	11.7372	
5158.	70.5631	11.5066	
5225.	70.5623	11.2829	
5294.	70.5583	11.0598	
5363.	70.5515	10.8436	
5433.	70.5418	10.6311	
5504.	70.5294	10.4222	
5576.	70.5143	10.2171	
5649.	70.4965	10.0153	
5722.	70.4763	9.82006	
5797.	70.4533	9.62560	
5873.	70.4278	9.43465	
5950.	70.3997	9.24739	
6027.	70.3696	9.06587	
6106.	70.3367	8.88565	
6186.	70.3014	8.70859	
6267.	70.2637	8.53518	
6349.	70.2235	8.36489	
6432.	70.1809	8.19820	
6516.	70.1358	8.03454	
6601.	70.0883	7.87442	
6687.	70.0384	7.71749	
6774.	69.9860	7.56346	
6863.	69.9302	7.41103	
6952.	69.8724	7.26330	
7043.	69.8112	7.11719	
7135.	69.7473	6.97415	
7229.	69.6797	6.83259	
7323.	69.6096	6.69530	
7419.	69.5355	6.55981	
7516.	69.4579	6.42691	
7614.	69.3765	6.29741	
7713.	69.2914	6.17023	
7814.	69.2008	6.04476	
7916.	69.1058	5.92228	
8019.	69.0057	5.80226	
8124.	68.8990	5.68369	
8230.	68.7860	5.56793	
8338.	68.6650	5.45375	
8447.	68.5361	5.34204	
8557.	68.3982	5.23297	
8669.	68.2487	5.12550	
8782.	68.0875	5.02065	
8897.	67.9109	4.91726	
9013.	67.7173	4.81603	
9131.	67.5014	4.71652	
9250.	67.2597	4.61904	
9371.	66.9828	4.52347	
9494.	66.6592	4.42916	
9618.	66.2737	4.33729	
9743.	65.7951	4.24770	
9900.58	64.9743	4.14269	
10060.7	63.5971	4.04058	
10206.7	49.2616	3.95105	
10206.9	49.2628	10.1858	
10223.4	59.3366	10.1559	
10388.8	64.0994	9.86408	
10556.8	65.3275	9.58067	
10727.6	65.9750	9.30540	
10901.1	66.3264	9.03804	
11077.4	66.4483	8.77837	
11256.6	66.3010	8.52616	
11438.6	65.5802	8.28120	
11543.9	58.6099	8.14452	
11544.1	58.6113	11.4044	
11623.6	65.4777	11.2733	
11811.7	66.7987	10.9729	
12002.7	67.0878	10.6804	
12099.7	64.0134	10.5366	
12099.9	64.0141	12.0866	
12196.8	67.6906	11.9410	
12394.1	68.7159	11.6534	
12594.6	69.3706	11.3715	
12798.3	69.8814	11.0950	
13005.3	70.3058	10.8240	
13215.6	70.6696	10.5584	
13429.4	70.9872	10.2983	
13646.6	71.2680	10.0435	
13867.3	71.5183	9.79402	
14091.6	71.7428	9.54983	
14319.5	71.9451	9.31086	
14551.1	72.1281	9.07704	
14786.5	72.2940	8.84832	
15025.6	72.4446	8.62463	
15268.7	72.5816	8.40590	
15515.6	72.7063	8.19207	
15766.6	72.8198	7.98307	
16021.6	72.9231	7.77881	
16280.7	73.0171	7.57924	
16544.1	73.1026	7.38427	
16811.6	73.1802	7.19384	
17083.6	73.2506	7.00785	
17359.9	73.3144	6.82625	
17640.6	73.3719	6.64895	
17926.0	73.4237	6.47587	
18215.9	73.4702	6.30693	
18510.5	73.5117	6.14207	
18809.9	73.5487	5.98119	
19114.2	73.5813	5.82423	
19423.3	73.6100	5.67110	
19737.5	73.6350	5.52173	
20056.7	73.6565	5.37605	
20381.1	73.6748	5.23397	
20710.8	73.6901	5.09543	
21045.7	73.7026	4.96035	
21386.1	73.7124	4.82864	
21732.0	73.7198	4.70026	
22083.5	73.7249	4.57511	
22440.7	73.7278	4.45313	
22803.7	73.7287	4.33424	
23172.5	73.7278	4.21839	
23547.3	73.7252	4.10550	
23928.2	73.7209	3.99550	
24315.2	73.7151	3.88832	
24708.5	73.7078	3.78391	
25108.1	73.6993	3.68219	
25514.2	73.6895	3.58311	
25926.9	73.6786	3.48660	
26346.2	73.6665	3.39260	
26772.4	73.6535	3.30105	
27205.4	73.6396	3.21189	
27645.4	73.6248	3.12506	
28092.6	73.6091	3.04051	
28546.9	73.5927	2.95818	
29008.7	73.5756	2.87802	
29477.9	73.5578	2.79997	
29954.6	73.5395	2.72398	
30000.0	73.5377	2.71692	
       30400.000        73.479900        2.7420000
       30800.000        73.464800        2.6808700
       31200.000        73.449500        2.6218600
       31500.000        73.437800        2.5789300
       31900.000        73.422100        2.5234100
       32300.000        73.406400        2.4697500
       32600.000        73.394500        2.4306700
       33000.000        73.378700        2.3800800
       33400.000        73.362800        2.3309000
       33800.000        73.346800        2.2833100
       34100.000        73.334700        2.2486200
       34500.000        73.318600        2.2036400
       34900.000        73.302400        2.1600600
       35300.000        73.286200        2.1177700
       35700.000        73.270100        2.0767600
       36030.000        73.256700        2.0438700
       36500.000        73.237800        1.9984100
       37000.000        73.217700        1.9517700
       37500.000        73.197500        1.9068300
       38000.000        73.177400        1.8635000
       38500.000        73.157400        1.8214800
       39000.000        73.137300        1.7809300
       39500.000        73.117300        1.7417900
       40000.000        73.097300        1.7039800
       40200.000        73.089300        1.6891400
       40400.000        73.081300        1.6745100
       40600.000        73.073300        1.6600800
       40894.900        73.061500        1.6391500
       41400.000        73.041300        1.6042500
       41900.000        73.021300        1.5708400
       42500.000        72.997200        1.5321700
       43000.000        72.977200        1.5010700
       43800.000        72.945000        1.4531300
       44500.000        72.916800        1.4131200
       45300.000        72.884300        1.3694000
       46000.000        72.855800        1.3327600
       46500.000        72.835200        1.3075200
       47000.000        72.814500        1.2830200
       47500.000        72.793600        1.2592300
       48000.000        72.772700        1.2361300
       48500.000        72.751500        1.2136800
       49000.000        72.730200        1.1918600
       49500.000        72.708700        1.1706500
       50000.000        72.686900        1.1500300
       51000.000        72.642600        1.1103000
       52000.000        72.597000        1.0726700
       53000.000        72.549800        1.0370000
       53500.000        72.525600        1.0200700
       54000.000        72.500800        1.0031500
       54500.000        72.475600       0.98707100
       55000.000        72.449700       0.97099200
       55500.000        72.423200       0.95565300
       56000.000        72.396000       0.94031300
       56400.000        72.373700       0.92857900
       56800.000        72.350800       0.91684500
       57530.000        72.307500       0.89621800
       57800.000        72.290900       0.88880800
       58000.000        72.278400       0.88331900
       58500.000        72.246300       0.86991100
       59000.000        72.213000       0.85698400
       59540.000        72.175400       0.84302200
       59800.000        72.156700       0.83650200
       59900.000        72.149300       0.83402100
       60000.000        72.141900       0.83154000
       60400.000        72.111600       0.82180900
       60800.000        72.080000       0.81207800
       61100.000        72.055300       0.80502700
       61500.000        72.021200       0.79562600
       61900.000        71.985300       0.78653900
       62300.000        71.947600       0.77745100
       62600.000        71.918000       0.77086000
       62800.000        71.897500       0.76646700
       63000.000        71.876400       0.76207300
       63300.000        71.843600       0.75572500
       63500.000        71.820800       0.75149400
       63800.000        71.785200       0.74514600
       64000.000        71.760400       0.74091400
       64300.000        71.721500       0.73483700
       64500.000        71.694300       0.73078500
       64800.000        71.651500       0.72470800
       65000.000        71.621300       0.72065700
       65300.000        71.573500       0.71482300
       65500.000        71.539700       0.71093300
       65700.000        71.504100       0.70704400
       65900.000        71.466700       0.70315400
       66200.000        71.406400       0.69754100
       66400.000        71.363200       0.69379900
       66600.000        71.317100       0.69005700
       66830.000        71.260000       0.68575400
       66910.000        71.239100       0.68431000
       67000.000        71.214700       0.68268500
       67100.000        71.186600       0.68087900
       67200.000        71.157400       0.67907300
       67300.000        71.126900       0.67726800
       67400.000        71.094900       0.67546200
       67500.000        71.061700       0.67365700
       67600.000        71.026700       0.67185100
       67700.000        70.989900       0.67009900
       67800.000        70.951200       0.66834800
       67900.000        70.910200       0.66659600
       68000.000        70.866900       0.66484400
       68080.000        70.830200       0.66344300
       68150.000        70.796500       0.66221700
       68230.000        70.756100       0.66081500
       68300.000        70.718800       0.65958900
       68400.000        70.662000       0.65788700
       68500.000        70.600400       0.65618400
       68550.000        70.567600       0.65533300
       68600.000        70.533500       0.65448200
       68650.000        70.497400       0.65363100
       68700.000        70.459700       0.65278000
       68740.000        70.428100       0.65209900
       68780.000        70.395000       0.65141800
       68850.000        70.333600       0.65022600
       68880.000        70.305700       0.64971600
       68920.000        70.266800       0.64903500
       68960.000        70.225700       0.64835400
       69000.000        70.182400       0.64767300
       69050.000        70.124600       0.64684600
       69100.000        70.062000       0.64601800
       69150.000        69.994000       0.64519100
       69180.000        69.950100       0.64469500
       69200.000        69.919400       0.64436400
       69230.000        69.870900       0.64386700
       69250.000        69.836900       0.64353600
       69270.000        69.801200       0.64320600
       69300.000        69.744600       0.64270900
       69320.000        69.704500       0.64237800
       69350.000        69.640100       0.64188200
       69380.000        69.570100       0.64138500
       69400.000        69.519600       0.64105500
       69420.000        69.465800       0.64072400
       69440.000        69.408100       0.64039300
       69455.000        69.361800       0.64014400
       69470.000        69.312700       0.63989600
       69490.000        69.242200       0.63956500
       69510.000        69.164800       0.63923400
       69520.000        69.123200       0.63906900
       69530.000        69.079200       0.63890400
       69540.000        69.032800       0.63873800
       69550.000        68.983500       0.63857300
       69560.000        68.930900       0.63840700
       69570.000        68.874800       0.63824200
       69580.000        68.814300       0.63807600
       69590.000        68.749100       0.63791100
       69600.000        68.678100       0.63774500
       69610.000        68.600300       0.63758000
       69620.000        68.514300       0.63741400
       69625.000        68.467600       0.63733200
       69630.000        68.418100       0.63724900
       69635.000        68.365400       0.63716600
       69640.000        68.308900       0.63708300
       69645.000        68.248400       0.63700100
       69650.000        68.183000       0.63691800
       69655.000        68.111900       0.63683500
       69660.000        68.034000       0.63675300
       69665.000        67.948100       0.63667000
       69670.000        67.851900       0.63658700
       69673.000        67.788300       0.63653700
       69675.000        67.743000       0.63650400
       69678.000        67.670000       0.63645500
       69680.000        67.617400       0.63642200
       69683.000        67.531600       0.63637200
       69685.000        67.469100       0.63633900
       69688.000        67.365500       0.63628900
       69690.000        67.288600       0.63625600
       69692.000        67.203400       0.63622300
       69694.000        67.108600       0.63619000
       69697.000        66.942200       0.63614000
       69698.000        66.878800       0.63612400
       69699.000        66.809500       0.63610700
       69700.500        66.694300       0.63608200
       69702.000        66.559900       0.63605800
       69703.000        66.457000       0.63604100
       69704.000        66.338500       0.63602400
       69705.000        66.200400       0.63600800
       69706.000        66.033100       0.63599100
       69707.100        65.792500       0.63597300
       69708.200        65.412100       0.63595500
       69708.300        65.416700       0.71613500
       69708.400        65.420700       0.79631600
       69708.500        65.418100       0.87649600
       69708.900        65.416500        1.1972200
       69709.600        65.384100        1.7584800
       69710.300        65.296000        1.1971900
       69711.000        65.117700       0.63590900
       69712.000        64.178100       0.63589300
       69712.900        62.601300       0.63587700
       69713.600        63.996700        6.1672400
       69714.300        65.507300        11.698600
       69714.800        66.546600        6.1672200
       69715.300        67.423000       0.63583800
       69715.500        67.893700       0.63583500
       69715.700        68.385500       0.63583200
       69716.700        66.872300        2.7231200
       69718.100        66.115900        1.8992300
       69718.900        65.919500        2.9525600
       69719.600        66.025800        3.4946300
       69720.300        66.379900        3.4623500
       69721.000        66.700600        3.4303800
       69721.700        66.814300        3.3990400
       69722.500        66.910900        3.3632400
       69723.300        66.987300        3.3337000
       69724.000        67.043900        3.3165700
       69724.800        67.098800        3.2975100
       69725.500        67.144200        3.2807400
       69726.300        67.187200        3.2618800
       69727.000        67.222400        3.2451700
       69727.800        67.257400        3.2355500
       69728.500        67.285900        3.2270600
       69729.200        67.314100        3.2186600
       69730.000        67.343900        3.2090600
       69731.000        67.377300        3.1970800
       69732.000        67.408400        3.1920700
       69733.500        67.452700        3.1847000
       69734.200        67.470900        3.1812500
       69735.000        67.492800        3.1773100
       69735.700        67.510500        3.1768900
       69736.500        67.531600        3.1764000
       69738.000        67.566600        3.1754800
       69740.000        67.611600        3.1767300
       69743.000        67.676500        3.1823000
       69745.000        67.718000        3.1883500
       69748.000        67.779000        3.1979400
       69750.000        67.818900        3.2043300
       69755.000        67.915200        3.2196800
       69760.000        68.007000        3.2312700
       69765.000        68.093400        3.2382200
       69770.000        68.173200        3.2408200
       69775.000        68.246500        3.2401500
       69780.000        68.313000        3.2374100
       69785.000        68.373000        3.2338500
       69790.000        68.427400        3.2302900
       69795.000        68.477500        3.2278800
       69800.000        68.523600        3.2254700
       69805.000        68.566900        3.2251800
       69810.000        68.608200        3.2248900
       69820.000        68.685800        3.2267900
       69830.000        68.758700        3.2295400
       69838.000        68.814000        3.2307200
       69845.000        68.860400        3.2317600
       69853.000        68.910800        3.2310200
       69860.000        68.952400        3.2303800
       69870.000        69.008000        3.2281000
       69880.000        69.059100        3.2258300
       69890.000        69.106800        3.2243800
       69900.000        69.151500        3.2229300
       69915.000        69.214400        3.2227300
       69930.000        69.274200        3.2231600
       69950.000        69.348500        3.2216900
       69970.000        69.416500        3.2202300
       69985.000        69.464200        3.2191300
       69993.000        69.488500        3.2185400
       69997.000        69.500400        3.2182500
       70000.000        69.509300        3.2180300
       70020.000        69.565900        3.2166700
       70040.000        69.619100        3.2153100
       70060.000        69.669200        3.2139500
       70080.000        69.716500        3.2125800
       70100.000        69.761400        3.2112200
       70120.000        69.804000        3.2098600
       70150.000        69.864300        3.2078200
       70190.000        69.938700        3.2050900
       70230.000        70.007200        3.2023700
       70260.000        70.055300        3.2003300
       70300.000        70.115400        3.1976100
       70330.000        70.157900        3.1955600
       70350.000        70.185100        3.1942000
       70400.000        70.249400        3.1908000
       70450.000        70.309300        3.1873900
       70500.000        70.365700        3.1839900
       70580.000        70.449700        3.1785400
       70650.000        70.517800        3.1737800
       70730.000        70.589800        3.1683300
       70800.000        70.649000        3.1635700
       70850.000        70.689200        3.1601600
       70900.000        70.727300        3.1567600
       70950.000        70.763600        3.1533500
       71000.000        70.798300        3.1499500
       71080.000        70.851000        3.1448800
       71150.000        70.894400        3.1404400
       71230.000        70.940900        3.1353600
       71300.000        70.980000        3.1309200
       71400.000        71.033200        3.1245800
       71500.000        71.083400        3.1182400
       71580.000        71.121700        3.1131700
       71650.000        71.153900        3.1087300
       71730.000        71.189100        3.1036500
       71800.000        71.219400        3.0992100
       71900.000        71.261900        3.0928700
       72000.000        71.302800        3.0865300
       72100.000        71.341800        3.0798100
       72200.000        71.379200        3.0730900
       72300.000        71.415500        3.0663800
       72400.000        71.450400        3.0596600
       72500.000        71.483800        3.0529400
       72600.000        71.516000        3.0462300
       72700.000        71.547200        3.0395100
       72800.000        71.577300        3.0327900
       72900.000        71.606300        3.0255300
       73000.000        71.634300        3.0182800
       73200.000        71.687600        3.0037700
       73350.000        71.725100        2.9928800
       73500.000        71.760600        2.9820000
       73700.000        71.805500        2.9689300
       73900.000        71.848400        2.9558700
       74050.000        71.878900        2.9460700
       74200.000        71.908500        2.9362700
       74400.000        71.946400        2.9245500
       74600.000        71.982200        2.9128200
       74800.000        72.017200        2.9011000
       74960.000        72.044600        2.8917200
       75080.000        72.064700        2.8848000
       75200.000        72.084300        2.8778700
       75500.000        72.131300        2.8605600
       75800.000        72.175700        2.8436900
       76000.000        72.204100        2.8324500
       76300.000        72.245500        2.8156200
       76600.000        72.285800        2.7987900
       76900.000        72.323800        2.7819500
       77110.000        72.349300        2.7701700
       77300.000        72.371700        2.7594200
       77500.000        72.394600        2.7481000
       77700.000        72.416800        2.7367800
       77900.000        72.438500        2.7254600
       78100.000        72.459900        2.7141400
       78300.000        72.480500        2.7028200
       78450.000        72.495500        2.6943300
       78600.000        72.510100        2.6858400
       79000.000        72.547600        2.6634600
       79300.000        72.574400        2.6466700
       79700.000        72.608500        2.6248100
       79850.000        72.620900        2.6166200
       80000.000        72.633000        2.6084200
       80400.000        72.664200        2.5873200
       80800.000        72.694000        2.5662200
       81200.000        72.722400        2.5451200
       81500.000        72.742800        2.5293000
       81900.000        72.769000        2.5092100
       82300.000        72.793900        2.4891200
       82700.000        72.817800        2.4690300
       83000.000        72.834900        2.4539600
       83300.000        72.851500        2.4397400
       83500.000        72.862400        2.4302600
       84000.000        72.888600        2.4065700
       84300.000        72.903800        2.3927900
       84500.000        72.913600        2.3836100
       84800.000        72.928000        2.3698300
       85000.000        72.937300        2.3606500
       85400.000        72.955500        2.3432800
       85800.000        72.973200        2.3259200
       86200.000        72.990300        2.3085500
       86500.000        73.002800        2.2955300
       86900.000        73.019000        2.2789300
       87300.000        73.034700        2.2623300
       87700.000        73.049900        2.2457300
       88000.000        73.061000        2.2332800
       88300.000        73.071900        2.2212000
       88500.000        73.079000        2.2131400
       89000.000        73.096200        2.1930100
       89500.000        73.112700        2.1734600
       89800.000        73.122300        2.1617200
       90000.000        73.128600        2.1539000
       90400.000        73.141000        2.1387100
       90800.000        73.152900        2.1235300
       91200.000        73.164400        2.1083400
       91500.000        73.172900        2.0969500
       91900.000        73.183800        2.0824000
       92300.000        73.194400        2.0678600
       92700.000        73.204700        2.0533100
       93000.000        73.212300        2.0424000
       93300.000        73.219700        2.0318700
       93500.000        73.224500        2.0248500
       94000.000        73.236300        2.0073000
       94500.000        73.247800        1.9902300
       94800.000        73.254500        1.9799900
       95000.000        73.258900        1.9731600
       95400.000        73.267500        1.9598000
       95800.000        73.275800        1.9464400
       96200.000        73.283900        1.9330800
       96500.000        73.289800        1.9230600
       96900.000        73.297500        1.9102400
       97300.000        73.305100        1.8974200
       98000.000        73.317700        1.8749800
       98500.000        73.326400        1.8593400
       99000.000        73.334900        1.8437000
       99500.000        73.343000        1.8284700
       99800.000        73.347700        1.8193300
       100000.00        73.350800        1.8132400
